-1255
-1751
-2246
-2730
-3201
-3660
-4109
-4548
-4966
-5360
-5749
-6120
-6492
-6838
-7169
-7479
-7769
-8038
-8269
-8462
-8628
-8757
-8863
-8925
-8961
-8967
-8956
-8931
-8878
-8802
-8720
-8615
-8504
-8364
-8206
-8029
-7844
-7649
-7435
-7211
-6985
-6750
-6515
-6265
-6014
-5762
-5517
-5273
-5020
-4771
-4523
-4280
-4041
-3797
-3558
-3323
-3102
-2882
-2658
-2443
-2231
-2031
-1834
-1638
-1449
-1268
-1099
-933
-764
-608
-450
-311
-166
-32
97
212
312
410
505
586
664
722
786
839
889
927
953
986
1021
1045
1073
1090
1115
1138
1160
1175
1187
1208
1230
1249
1270
1288
1317
1345
1372
1391
1409
1435
1458
1480
1495
1509
1526
1540
1551
1549
1550
1558
1563
1569
1571
1575
1584
1593
1600
1600
1604
1618
1624
1639
1641
1657
1672
1690
1704
1712
1726
1745
1757
1774
1778
1795
1806
1817
1820
1812
1813
1815
1809
1806
1794
1790
1785
1779
1766
1751
1745
1740
1732
1727
1717
1717
1715
1713
1704
1695
1698
1699
1703
1704
1708
1717
1724
1728
1722
1718
1720
1717
1716
1707
1698
1692
1685
1674
1654
1639
1633
1619
1613
1595
1590
1584
1580
1571
1558
1552
1552
1547
1549
1540
1548
1554
1564
1567
1564
1571
1580
1584
1589
1586
1589
1588
1585
1573
1556
1547
1536
1523
1511
1494
1487
1477
1467
1449
1433
1428
1421
1416
1409
1405
1407
1410
1413
1410
1410
1420
1428
1438
1444
1452
1461
1470
1473
1465
1462
1465
1456
1453
1436
1428
1418
1409
1394
1375
1362
1356
1344
1340
1325
1328
1327
1330
1326
1318
1321
1328
1333
1342
1346
1360
1372
1385
1389
1390
1398
1405
1407
1406
1399
1399
1395
1388
1371
1352
1343
1330
1320
1304
1292
1288
1283
1278
1265
1258
1259
1258
1260
1257
1261
1268
1277
1285
1284
1292
1308
1313
1326
1325
1333
1339
1345
1343
1334
1331
1333
1325
1324
1309
1311
1308
1309
1303
1294
1297
1301
1305
1312
1314
1328
1341
1355
1363
1370
1387
1404
1419
1432
1441
1457
1469
1478
1476
1472
1476
1473
1470
1458
1448
1440
1430
1418
1397
1380
1369
1358
1350
1336
1331
1329
1330
1329
1319
1321
1332
1337
1350
1354
1368
1383
1400
1414
1421
1436
1455
1465
1481
1482
1496
1505
1514
1515
1510
1512
1514
1514
1516
1512
1519
1525
1532
1533
1534
1545
1557
1568
1579
1588
1607
1624
1643
1653
1665
1688
1705
1726
1738
1753
1769
1783
1793
1792
1791
1794
1792
1791
1780
1777
1773
1770
1763
1747
1739
1740
1735
1739
1733
1738
1744
1751
1754
1751
1756
1769
1772
1783
1782
1795
1805
1814
1815
1811
1814
1815
1811
1806
1792
1787
1777
1765
1744
1719
1705
1689
1673
1655
1637
1627
1617
1607
1588
1572
1566
1555
1547
1533
1522
1515
1507
1497
1479
1462
1451
1434
1419
1392
1372
1348
1322
1288
1242
1201
1165
1120
1079
1028
986
943
902
856
803
760
724
679
644
597
564
530
496
456
413
379
345
308
271
227
192
153
112
60
5
-43
-94
-149
-206
-265
-319
-373
-427
-490
-549
-597
-648
-694
-744
-788
-826
-862
-899
-940
-978
-1007
-1040
-1067
-1104
-1128
-1153
-1176
-1203
-1241
-1272
-1299
-1332
-1361
-1401
-1432
-1467
-1500
-1540
-1588
-1626
-1657
-1697
-1727
-1767
-1792
-1818
-1840
-1867
-1894
-1911
-1926
-1943
-1957
-1976
-1983
-1993
-2000
-2015
-2029
-2031
-2036
-2040
-2048
-2057
-2061
-2066
-2074
-2093
-2111
-2119
-2133
-2144
-2163
-2180
-2192
-2203
-2216
-2235
-2250
-2256
-2266
-2268
-2280
-2279
-2278
-2275
-2277
-2285
-2285
-2278
-2275
-2265
-2264
-2250
-2238
-2225
-2218
-2222
-2215
-2204
-2204
-2199
-2205
-2203
-2204
-2205
-2213
-2224
-2225
-2225
-2226
-2225
-2228
-2220
-2212
-2204
-2202
-2201
-2187
-2176
-2164
-2155
-2145
-2128
-2112
-2097
-2090
-2081
-2063
-2051
-2038
-2033
-2028
-2020
-2015
-2015
-2026
-2035
-2038
-2051
-2056
-2075
-2080
-2087
-2092
-2101
-2115
-2121
-2120
-2122
-2118
-2123
-2113
-2104
-2093
-2085
-2084
-2070
-2050
-2036
-2015
-2003
-1981
-1962
-1943
-1932
-1924
-1908
-1894
-1884
-1874
-1871
-1861
-1853
-1847
-1849
-1853
-1846
-1840
-1832
-1827
-1820
-1806
-1793
-1780
-1776
-1768
-1752
-1738
-1722
-1710
-1695
-1675
-1655
-1637
-1627
-1614
-1593
-1582
-1564
-1562
-1550
-1541
-1533
-1531
-1536
-1536
-1530
-1530
-1524
-1528
-1517
-1509
-1497
-1491
-1491
-1479
-1462
-1450
-1433
-1422
-1402
-1383
-1363
-1349
-1336
-1314
-1292
-1274
-1255
-1243
-1223
-1206
-1191
-1187
-1185
-1174
-1168
-1161
-1159
-1155
-1145
-1135
-1126
-1125
-1120
-1106
-1095
-1079
-1068
-1054
-1036
-1016
-999
-989
-973
-947
-929
-902
-888
-863
-840
-817
-801
-792
-778
-761
-752
-738
-738
-724
-715
-706
-704
-707
-700
-689
-682
-670
-664
-647
-631
-613
-602
-592
-572
-551
-532
-511
-495
-467
-441
-414
-397
-380
-353
-331
-310
-296
-282
-265
-252
-243
-244
-244
-238
-235
-229
-228
-222
-212
-201
-192
-191
-182
-164
-155
-137
-132
-115
-98
-79
-64
-55
-39
-16
-1
21
30
54
71
89
97
97
104
111
112
113
105
106
103
102
94
83
83
83
82
82
80
89
96
104
104
106
120
129
142
150
162
179
195
208
211
215
226
231
236
232
231
230
228
221
203
192
190
179
176
163
160
157
157
153
144
144
151
150
158
153
164
172
183
188
190
201
213
221
230
231
240
246
250
245
236
235
231
223
214
201
196
189
182
166
151
148
140
135
124
118
116
115
112
102
94
95
95
97
93
97
101
105
104
91
85
85
74
69
51
40
28
15
-2
-25
-39
-47
-63
-71
-90
-93
-98
-100
-108
-118
-118
-115
-114
-111
-112
-103
-97
-90
-92
-97
-94
-94
-97
-104
-116
-121
-131
-142
-164
-185
-195
-209
-219
-232
-240
-242
-241
-241
-246
-247
-238
-233
-222
-220
-208
-196
-183
-174
-175
-167
-152
-144
-131
-130
-121
-114
-108
-107
-116
-117
-113
-119
-118
-130
-129
-131
-130
-136
-144
-144
-141
-140
-137
-137
-127
-119
-110
-110
-112
-103
-95
-87
-81
-76
-65
-55
-47
-49
-50
-42
-41
-38
-44
-47
-47
-48
-53
-65
-74
-74
-79
-78
-87
-85
-83
-79
-78
-85
-83
-75
-71
-61
-61
-51
-42
-30
-23
-22
-12
5
12
25
26
38
46
53
51
46
48
49
46
44
35
36
33
31
21
10
10
9
8
6
3
8
12
14
8
5
13
18
27
31
39
51
63
72
74
78
89
94
104
103
116
129
145
160
170
194
229
265
313
358
421
488
564
641
715
806
906
1001
1109
1210
1327
1444
1567
1685
1803
1928
2053
2175
2297
2413
2536
2655
2773
2884
2997
3125
3255
3389
3526
3667
3821
3979
4142
4300
4469
4651
4828
5006
5174
5336
5489
5628
5753
5856
5948
6033
6093
6137
6143
6131
6082
5996
5867
5692
5487
5251
4975
4671
4325
3960
3564
3145
2696
2219
1734
1241
731
220
-300
-805
-1304
-1795
-2279
-2751
-3199
-3626
-4035
-4420
-4788
-5128
-5455
-5766
-6069
-6352
-6602
-6828
-7025
-7197
-7342
-7455
-7543
-7609
-7662
-7691
-7694
-7684
-7656
-7619
-7569
-7501
-7420
-7329
-7232
-7118
-6982
-6841
-6682
-6526
-6349
-6164
-5969
-5769
-5568
-5354
-5131
-4910
-4682
-4463
-4230
-4002
-3774
-3554
-3346
-3129
-2913
-2708
-2503
-2311
-2117
-1930
-1749
-1580
-1418
-1254
-1096
-947
-802
-669
-530
-400
-273
-160
-52
63
172
276
372
465
559
645
724
787
846
906
957
1003
1039
1070
1099
1124
1143
1150
1158
1174
1179
1191
1188
1196
1202
1209
1210
1205
1207
1214
1216
1225
1225
1240
1253
1269
1279
1281
1294
1310
1320
1331
1333
1343
1348
1351
1345
1333
1329
1324
1313
1302
1286
1279
1270
1262
1246
1230
1226
1219
1214
1207
1203
1206
1210
1214
1210
1213
1226
1237
1251
1259
1269
1282
1294
1302
1297
1297
1304
1299
1300
1287
1284
1279
1274
1264
1247
1237
1233
1221
1217
1202
1203
1201
1202
1197
1187
1190
1196
1201
1211
1215
1230
1244
1258
1263
1265
1275
1283
1285
1285
1278
1278
1274
1268
1250
1232
1223
1209
1198
1181
1170
1164
1160
1155
1142
1133
1134
1133
1135
1133
1136
1144
1153
1162
1162
1169
1186
1192
1205
1204
1211
1216
1219
1216
1205
1199
1198
1187
1183
1166
1165
1159
1155
1145
1131
1129
1129
1127
1129
1126
1134
1141
1150
1152
1152
1164
1177
1189
1201
1209
1225
1237
1248
1248
1247
1255
1256
1258
1252
1248
1247
1244
1239
1225
1215
1213
1208
1207
1200
1201
1203
1208
1211
1206
1209
1222
1226
1239
1242
1255
1269
1283
1293
1296
1306
1321
1325
1335
1329
1336
1337
1338
1329
1315
1309
1304
1297
1292
1282
1282
1282
1283
1278
1273
1279
1286
1292
1299
1304
1319
1333
1347
1354
1364
1384
1400
1418
1430
1443
1459
1473
1482
1482
1483
1488
1489
1491
1485
1487
1489
1494
1495
1487
1488
1499
1502
1514
1516
1528
1540
1555
1567
1571
1584
1605
1616
1637
1645
1667
1685
1702
1710
1712
1721
1728
1730
1730
1722
1722
1718
1713
1700
1686
1682
1679
1675
1671
1666
1672
1678
1685
1684
1686
1701
1712
1728
1739
1754
1776
1799
1820
1836
1853
1877
1894
1915
1924
1941
1955
1967
1972
1964
1962
1964
1958
1958
1947
1945
1943
1942
1938
1927
1927
1934
1932
1940
1936
1946
1955
1965
1968
1970
1981
1992
2000
2009
2010
2019
2025
2029
2023
2012
2009
2001
1989
1972
1952
1937
1921
1904
1878
1854
1842
1826
1814
1798
1787
1782
1778
1773
1762
1755
1756
1751
1753
1743
1745
1745
1746
1742
1726
1716
1710
1694
1680
1654
1635
1612
1588
1556
1514
1481
1453
1417
1388
1348
1321
1293
1266
1233
1198
1172
1147
1118
1092
1060
1038
1013
988
955
919
892
861
826
787
743
704
660
612
551
492
442
384
329
267
208
155
102
48
-11
-64
-107
-155
-196
-247
-284
-321
-357
-397
-444
-483
-515
-551
-581
-621
-651
-683
-715
-754
-803
-843
-879
-925
-966
-1020
-1065
-1112
-1160
-1213
-1269
-1316
-1360
-1407
-1450
-1497
-1532
-1568
-1602
-1642
-1681
-1708
-1737
-1765
-1796
-1824
-1845
-1867
-1890
-1922
-1952
-1972
-1997
-2020
-2049
-2078
-2103
-2129
-2159
-2197
-2232
-2259
-2294
-2321
-2360
-2384
-2408
-2430
-2454
-2484
-2505
-2518
-2534
-2543
-2559
-2562
-2565
-2564
-2568
-2578
-2575
-2566
-2564
-2557
-2558
-2552
-2547
-2543
-2548
-2556
-2556
-2557
-2561
-2566
-2576
-2577
-2580
-2582
-2591
-2600
-2597
-2594
-2590
-2587
-2582
-2569
-2555
-2542
-2536
-2525
-2503
-2486
-2464
-2447
-2427
-2402
-2378
-2357
-2344
-2329
-2306
-2295
-2277
-2276
-2264
-2256
-2248
-2247
-2254
-2255
-2250
-2251
-2246
-2250
-2239
-2229
-2215
-2206
-2202
-2185
-2162
-2144
-2119
-2102
-2075
-2049
-2021
-1999
-1980
-1953
-1927
-1905
-1885
-1871
-1849
-1832
-1819
-1816
-1816
-1807
-1802
-1797
-1795
-1792
-1782
-1771
-1761
-1759
-1753
-1736
-1721
-1702
-1687
-1668
-1644
-1620
-1597
-1581
-1559
-1526
-1502
-1470
-1451
-1421
-1392
-1364
-1342
-1328
-1308
-1285
-1270
-1251
-1247
-1229
-1217
-1203
-1197
-1198
-1189
-1176
-1168
-1155
-1148
-1131
-1114
-1096
-1085
-1076
-1057
-1038
-1021
-1003
-989
-965
-944
-924
-913
-904
-885
-871
-858
-850
-841
-829
-821
-816
-822
-826
-825
-827
-827
-832
-833
-830
-827
-824
-830
-828
-815
-811
-797
-794
-778
-761
-743
-727
-716
-697
-670
-651
-625
-613
-586
-566
-546
-535
-532
-521
-511
-506
-501
-504
-499
-498
-497
-503
-511
-510
-508
-507
-505
-506
-496
-488
-479
-477
-475
-461
-450
-435
-424
-410
-391
-373
-358
-353
-347
-335
-328
-322
-323
-322
-321
-320
-324
-340
-348
-348
-357
-359
-372
-375
-378
-378
-383
-393
-394
-388
-388
-380
-384
-370
-360
-345
-337
-333
-319
-304
-292
-279
-274
-262
-255
-249
-252
-261
-262
-266
-273
-281
-294
-298
-304
-311
-327
-341
-344
-349
-352
-359
-361
-357
-353
-351
-354
-352
-342
-332
-319
-312
-298
-283
-268
-258
-260
-255
-245
-244
-238
-245
-244
-245
-246
-252
-264
-268
-266
-272
-270
-280
-275
-272
-266
-266
-269
-263
-255
-248
-238
-233
-218
-204
-190
-184
-181
-169
-160
-155
-153
-157
-154
-155
-159
-175
-192
-198
-210
-219
-235
-246
-252
-257
-263
-274
-281
-278
-278
-273
-275
-266
-258
-246
-237
-237
-228
-211
-203
-188
-186
-176
-168
-160
-159
-166
-167
-163
-170
-170
-184
-185
-188
-189
-197
-208
-210
-209
-209
-205
-205
-193
-182
-168
-162
-156
-140
-123
-107
-93
-81
-62
-46
-31
-28
-25
-15
-11
-7
-11
-15
-15
-17
-22
-33
-42
-42
-46
-45
-52
-47
-42
-34
-30
-35
-31
-19
-12
1
5
18
31
46
55
57
68
85
91
104
103
113
118
121
116
106
103
100
93
88
76
76
73
72
63
55
57
60
62
63
63
72
80
89
89
92
106
117
130
136
145
156
166
171
168
165
168
164
164
151
149
145
141
133
116
108
106
100
100
91
94
97
102
103
98
104
117
120
133
135
149
159
170
173
171
176
180
178
177
168
167
162
155
138
120
112
103
94
82
71
68
65
62
50
42
44
43
45
43
42
47
53
57
54
55
63
65
72
66
70
72
72
66
49
38
30
14
2
-22
-34
-47
-58
-74
-96
-106
-110
-119
-120
-128
-124
-121
-115
-115
-116
-108
-99
-94
-86
-84
-73
-65
-58
-63
-70
-68
-71
-77
-86
-97
-103
-111
-122
-142
-160
-168
-181
-189
-201
-210
-212
-214
-216
-225
-229
-224
-227
-221
-229
-222
-218
-212
-211
-217
-217
-214
-217
-217
-229
-230
-236
-242
-256
-279
-294
-306
-326
-341
-365
-379
-395
-408
-427
-446
-455
-462
-470
-474
-484
-481
-479
-476
-480
-483
-476
-469
-462
-458
-453
-443
-435
-429
-434
-437
-433
-435
-435
-442
-448
-451
-453
-456
-466
-469
-462
-461
-450
-451
-438
-424
-408
-395
-387
-371
-349
-333
-309
-297
-269
-245
-220
-201
-191
-171
-150
-136
-120
-113
-100
-91
-83
-83
-88
-83
-78
-75
-70
-69
-58
-49
-38
-36
-32
-17
-4
11
22
35
54
73
90
99
111
131
147
165
175
188
204
218
229
229
235
250
256
272
278
299
323
355
388
423
473
536
600
680
755
855
957
1067
1175
1280
1400
1528
1655
1789
1917
2056
2192
2327
2452
2573
2701
2826
2945
3061
3171
3291
3411
3535
3656
3782
3924
4068
4218
4366
4519
4681
4848
5016
5176
5336
5498
5649
5790
5911
6021
6121
6206
6272
6311
6334
6339
6303
6240
6126
5984
5803
5584
5326
5029
4709
4365
3985
3588
3155
2718
2256
1780
1286
777
275
-224
-720
-1206
-1691
-2157
-2615
-3061
-3498
-3919
-4311
-4684
-5044
-5392
-5732
-6053
-6362
-6656
-6937
-7193
-7413
-7609
-7776
-7920
-8034
-8116
-8175
-8213
-8239
-8245
-8227
-8198
-8151
-8097
-8022
-7928
-7816
-7688
-7553
-7393
-7211
-7025
-6819
-6612
-6385
-6150
-5905
-5660
-5417
-5165
-4906
-4655
-4399
-4159
-3907
-3665
-3425
-3197
-2979
-2758
-2540
-2331
-2126
-1931
-1733
-1542
-1355
-1182
-1016
-846
-682
-525
-374
-232
-86
54
188
308
424
544
654
759
850
937
1022
1098
1165
1218
1267
1316
1356
1393
1418
1446
1472
1496
1515
1521
1534
1554
1565
1583
1588
1603
1616
1631
1641
1646
1659
1680
1691
1711
1717
1738
1754
1770
1777
1778
1784
1790
1791
1791
1783
1783
1778
1772
1757
1739
1731
1722
1711
1700
1685
1679
1672
1663
1646
1630
1625
1616
1611
1600
1595
1594
1595
1593
1584
1577
1576
1570
1566
1552
1546
1538
1530
1515
1490
1471
1457
1436
1421
1396
1380
1365
1352
1336
1315
1303
1300
1290
1289
1276
1280
1281
1284
1283
1280
1287
1295
1301
1309
1310
1320
1327
1333
1328
1320
1319
1316
1309
1298
1284
1276
1267
1257
1237
1219
1213
1203
1197
1186
1180
1179
1179
1179
1174
1173
1182
1186
1197
1198
1212
1225
1239
1248
1245
1248
1256
1257
1260
1251
1251
1247
1244
1234
1217
1209
1208
1198
1197
1184
1186
1187
1189
1186
1181
1185
1191
1196
1204
1206
1220
1231
1243
1247
1250
1262
1272
1280
1283
1284
1290
1293
1292
1279
1267
1263
1253
1246
1232
1222
1217
1213
1207
1196
1189
1192
1191
1197
1192
1203
1213
1226
1236
1238
1250
1267
1281
1300
1308
1327
1343
1360
1370
1370
1378
1390
1391
1398
1392
1395
1394
1393
1385
1376
1377
1378
1378
1381
1380
1391
1402
1414
1419
1424
1440
1455
1469
1481
1493
1513
1530
1546
1551
1558
1573
1581
1590
1592
1593
1597
1598
1596
1586
1577
1577
1570
1572
1562
1566
1569
1575
1578
1576
1582
1594
1603
1620
1626
1647
1665
1685
1700
1707
1725
1746
1758
1775
1780
1794
1805
1814
1815
1811
1815
1817
1816
1814
1806
1809
1809
1811
1805
1799
1806
1812
1819
1825
1832
1848
1864
1880
1888
1900
1922
1940
1960
1974
1990
2009
2027
2040
2044
2051
2064
2066
2074
2066
2069
2069
2068
2061
2047
2039
2036
2028
2025
2012
2014
2014
2016
2013
2003
2005
2011
2010
2015
2013
2020
2026
2033
2033
2031
2037
2044
2045
2046
2040
2041
2036
2030
2012
1991
1979
1962
1945
1924
1904
1889
1873
1855
1829
1806
1792
1776
1762
1743
1727
1714
1702
1688
1666
1650
1643
1627
1620
1598
1587
1573
1559
1538
1509
1485
1463
1434
1410
1371
1346
1315
1285
1247
1202
1169
1138
1103
1072
1034
1005
975
947
912
874
845
817
786
757
725
702
677
651
615
578
549
515
480
439
398
360
320
277
223
170
126
78
32
-18
-64
-107
-148
-190
-240
-282
-315
-356
-387
-431
-462
-493
-522
-556
-594
-626
-651
-684
-709
-749
-773
-804
-834
-873
-920
-958
-996
-1039
-1081
-1131
-1173
-1217
-1261
-1312
-1365
-1408
-1449
-1491
-1531
-1575
-1607
-1640
-1672
-1710
-1746
-1770
-1795
-1817
-1843
-1865
-1880
-1896
-1913
-1940
-1964
-1983
-2005
-2026
-2054
-2079
-2102
-2126
-2154
-2192
-2222
-2243
-2274
-2295
-2327
-2347
-2365
-2381
-2401
-2424
-2438
-2443
-2455
-2457
-2470
-2464
-2460
-2451
-2448
-2449
-2439
-2427
-2418
-2407
-2403
-2392
-2384
-2378
-2382
-2391
-2392
-2396
-2403
-2411
-2423
-2426
-2430
-2434
-2446
-2457
-2457
-2460
-2460
-2466
-2466
-2460
-2452
-2444
-2442
-2435
-2419
-2403
-2384
-2370
-2350
-2330
-2309
-2294
-2290
-2280
-2264
-2259
-2249
-2252
-2247
-2245
-2241
-2242
-2249
-2247
-2238
-2237
-2226
-2227
-2211
-2198
-2181
-2171
-2165
-2148
-2128
-2110
-2087
-2069
-2040
-2013
-1986
-1967
-1951
-1927
-1906
-1889
-1874
-1864
-1849
-1838
-1829
-1832
-1836
-1829
-1827
-1823
-1824
-1821
-1814
-1805
-1798
-1796
-1790
-1775
-1763
-1746
-1735
-1716
-1695
-1673
-1653
-1643
-1624
-1597
-1577
-1552
-1537
-1515
-1495
-1474
-1460
-1456
-1445
-1428
-1423
-1411
-1413
-1400
-1391
-1381
-1379
-1378
-1369
-1357
-1348
-1336
-1329
-1311
-1294
-1276
-1264
-1255
-1236
-1217
-1198
-1181
-1165
-1141
-1119
-1100
-1092
-1083
-1067
-1058
-1048
-1046
-1043
-1037
-1034
-1034
-1040
-1043
-1037
-1034
-1025
-1022
-1006
-987
-965
-943
-928
-900
-861
-824
-775
-729
-665
-595
-515
-430
-342
-233
-108
16
156
290
444
601
764
925
1086
1259
1434
1606
1781
1951
2132
2311
2489
2660
2831
3015
3202
3391
3581
3772
3975
4179
4385
4586
4792
5010
5222
5430
5620
5798
5963
6109
6235
6336
6420
6490
6527
6541
6512
6460
6368
6238
6061
5831
5565
5261
4906
4513
4065
3586
3067
2516
1936
1329
718
103
-531
-1162
-1808
-2442
-3076
-3702
-4326
-4942
-5538
-6119
-6685
-7228
-7753
-8244
-8716
-9169
-9616
-10050
-10459
-10854
-11233
-11592
-11930
-12236
-12516
-12768
-12998
-13190
-13333
-13442
-13505
-13531
-13509
-13439
-13326
-13176
-12994
-12775
-12515
-12232
-11914
-11583
-11216
-10830
-10426
-10015
-9603
-9176
-8738
-8302
-7859
-7425
-6983
-6545
-6110
-5685
-5273
-4854
-4438
-4037
-3637
-3258
-2879
-2513
-2160
-1828
-1511
-1200
-902
-622
-355
-108
135
359
568
754
925
1092
1244
1384
1511
1628
1742
1847
1944
2025
2106
2191
2268
2345
2413
2479
2546
2610
2667
2713
2759
2808
2846
2886
2909
2941
2969
2996
3013
3020
3031
3045
3050
3059
3056
3064
3067
3072
3070
3060
3061
3068
3070
3078
3078
3089
3100
3112
3118
3121
3132
3142
3147
3151
3149
3154
3155
3154
3143
3129
3125
3116
3106
3092
3077
3067
3054
3039
3013
2988
2972
2951
2932
2908
2886
2870
2855
2839
2815
2797
2788
2771
2762
2740
2729
2716
2703
2684
2657
2637
2621
2600
2584
2556
2543
2525
2509
2485
2453
2431
2412
2388
2366
2337
2316
2293
2270
2240
2209
2186
2165
2140
2118
2090
2073
2053
2033
2003
1973
1952
1928
1905
1878
1854
1836
1820
1804
1781
1763
1755
1746
1740
1730
1722
1719
1717
1713
1699
1692
1694
1687
1688
1676
1675
1673
1672
1667
1656
1651
1652
1647
1647
1635
1639
1639
1640
1634
1622
1621
1624
1623
1626
1623
1629
1633
1637
1634
1627
1629
1629
1626
1624
1616
1616
1614
1612
1600
1589
1589
1586
1584
1578
1575
1577
1579
1580
1571
1567
1570
1572
1577
1577
1583
1593
1604
1613
1614
1623
1639
1646
1660
1662
1674
1683
1693
1697
1694
1696
1705
1705
1713
1708
1719
1725
1733
1734
1730
1735
1743
1746
1753
1753
1763
1772
1781
1786
1788
1802
1816
1828
1839
1847
1863
1876
1887
1889
1890
1900
1905
1910
1909
1909
1914
1918
1920
1914
1911
1916
1920
1926
1927
1933
1941
1951
1959
1958
1965
1982
1991
2009
2017
2035
2053
2072
2084
2090
2101
2118
2125
2139
2137
2151
2159
2166
2165
2158
2160
2163
2164
2167
2164
2172
2178
2185
2185
2182
2190
2199
2206
2213
2218
2232
2246
2259
2265
2272
2289
2300
2313
2319
2326
2336
2343
2346
2338
2332
2330
2323
2318
2305
2299
2294
2289
2281
2264
2256
2257
2250
2252
2244
2245
2247
2251
2251
2246
2251
2264
2268
2281
2281
2297
2307
2317
2319
2315
2319
2322
2320
2318
2309
2307
2302
2297
2283
2266
2259
2251
2241
2231
2219
2216
2211
2208
2196
2186
2188
2185
2186
2183
2183
2189
2195
2199
2195
2194
2198
2198
2199
2190
2187
2182
2175
2161
2133
2111
2095
2070
2050
2017
1993
1966
1941
1911
1874
1845
1822
1790
1767
1730
1709
1684
1662
1632
1600
1576
1552
1525
1497
1461
1432
1398
1361
1312
1258
1212
1161
1106
1047
985
930
872
812
744
676
620
559
501
439
380
328
278
226
170
118
74
28
-12
-62
-99
-138
-175
-218
-270
-315
-354
-402
-446
-501
-549
-600
-652
-709
-774
-828
-876
-932
-979
-1036
-1079
-1123
-1166
-1214
-1263
-1303
-1341
-1381
-1416
-1457
-1485
-1515
-1543
-1580
-1618
-1646
-1676
-1708
-1742
-1780
-1813
-1850
-1889
-1940
-1990
-2031
-2078
-2122
-2171
-2217
-2256
-2295
-2333
-2376
-2413
-2440
-2471
-2495
-2527
-2545
-2563
-2577
-2595
-2620
-2636
-2644
-2656
-2663
-2678
-2684
-2693
-2702
-2716
-2741
-2756
-2767
-2789
-2804
-2832
-2849
-2869
-2887
-2911
-2936
-2951
-2963
-2976
-2984
-2997
-2996
-2997
-2995
-2999
-3004
-2997
-2990
-2982
-2975
-2967
-2951
-2937
-2923
-2919
-2915
-2902
-2896
-2889
-2890
-2891
-2889
-2888
-2892
-2902
-2910
-2909
-2914
-2912
-2919
-2912
-2905
-2895
-2888
-2887
-2878
-2861
-2848
-2828
-2816
-2791
-2768
-2742
-2720
-2705
-2678
-2647
-2623
-2594
-2576
-2550
-2527
-2506
-2495
-2488
-2476
-2464
-2457
-2450
-2448
-2435
-2424
-2413
-2409
-2405
-2390
-2376
-2360
-2346
-2330
-2308
-2285
-2262
-2248
-2230
-2201
-2175
-2145
-2120
-2094
-2064
-2035
-2011
-1995
-1977
-1953
-1939
-1919
-1913
-1896
-1882
-1867
-1858
-1856
-1847
-1832
-1821
-1802
-1792
-1767
-1744
-1717
-1696
-1682
-1656
-1626
-1603
-1575
-1557
-1530
-1505
-1480
-1461
-1446
-1424
-1403
-1387
-1373
-1365
-1350
-1340
-1333
-1335
-1339
-1335
-1332
-1329
-1329
-1327
-1319
-1312
-1305
-1306
-1303
-1290
-1281
-1268
-1262
-1253
-1240
-1228
-1217
-1214
-1205
-1186
-1177
-1160
-1157
-1141
-1129
-1118
-1113
-1115
-1113
-1108
-1110
-1107
-1116
-1112
-1112
-1109
-1113
-1123
-1120
-1114
-1111
-1103
-1100
-1087
-1075
-1061
-1052
-1044
-1026
-1007
-990
-972
-957
-931
-909
-886
-874
-863
-844
-829
-815
-807
-799
-788
-780
-776
-782
-786
-781
-780
-776
-777
-774
-767
-759
-752
-753
-747
-731
-724
-707
-704
-688
-672
-655
-642
-634
-619
-599
-586
-567
-562
-544
-531
-519
-515
-519
-515
-510
-510
-508
-512
-509
-507
-504
-509
-514
-509
-503
-499
-493
-491
-477
-466
-453
-448
-442
-423
-408
-391
-377
-361
-339
-319
-303
-297
-290
-276
-268
-259
-259
-257
-254
-252
-254
-265
-269
-264
-269
-265
-273
-269
-264
-258
-256
-259
-254
-242
-236
-222
-219
-199
-182
-163
-151
-145
-130
-114
-103
-92
-87
-76
-68
-62
-66
-74
-75
-78
-84
-90
-100
-102
-106
-110
-122
-133
-133
-136
-136
-141
-142
-137
-132
-128
-130
-128
-116
-107
-94
-87
-76
-64
-53
-46
-52
-52
-46
-50
-49
-62
-65
-70
-74
-82
-95
-101
-101
-108
-106
-116
-108
-103
-96
-94
-95
-87
-77
-68
-55
-48
-31
-18
-4
0
1
9
16
17
16
9
8
3
-4
-21
-37
-43
-54
-63
-77
-86
-88
-91
-93
-102
-107
-105
-105
-101
-104
-100
-94
-87
-83
-89
-88
-80
-81
-78
-86
-88
-91
-96
-108
-128
-141
-150
-170
-181
-205
-212
-224
-232
-248
-265
-273
-277
-283
-285
-292
-287
-284
-279
-282
-286
-279
-273
-268
-264
-262
-253
-248
-244
-250
-256
-253
-258
-262
-274
-283
-289
-298
-308
-326
-340
-346
-353
-356
-365
-362
-358
-350
-344
-347
-339
-323
-314
-297
-288
-269
-250
-229
-213
-206
-191
-173
-167
-154
-158
-149
-147
-146
-154
-167
-175
-182
-193
-202
-218
-223
-230
-236
-250
-264
-268
-273
-277
-282
-287
-283
-279
-276
-281
-284
-274
-270
-262
-262
-261
-256
-254
-256
-267
-277
-282
-292
-299
-317
-324
-332
-339
-349
-368
-379
-381
-388
-388
-396
-393
-391
-386
-385
-390
-385
-371
-366
-351
-348
-333
-321
-308
-303
-303
-296
-291
-290
-290
-298
-297
-300
-304
-316
-330
-332
-336
-340
-345
-350
-346
-342
-337
-340
-339
-327
-319
-306
-299
-287
-270
-253
-236
-227
-215
-196
-185
-170
-169
-157
-150
-144
-145
-157
-162
-163
-169
-171
-182
-181
-181
-178
-179
-187
-182
-169
-164
-150
-145
-129
-113
-95
-84
-74
-57
-39
-24
-10
-1
15
27
36
35
31
36
37
35
30
24
23
21
19
8
1
5
5
10
11
15
25
35
44
47
53
69
77
92
96
114
129
146
156
158
166
177
183
192
189
196
199
203
199
186
183
185
179
179
171
174
176
181
180
177
184
192
198
208
212
228
241
256
263
269
285
299
312
321
328
341
352
360
357
355
360
359
359
352
346
345
343
339
328
323
327
323
328
320
326
332
339
343
340
344
355
361
373
375
390
402
415
420
415
421
428
427
429
420
419
414
407
393
376
368
360
350
343
332
332
329
327
316
307
307
305
302
297
292
295
297
298
291
288
292
292
293
288
284
283
280
273
256
245
241
226
221
202
196
189
185
176
163
158
160
158
164
159
171
181
193
198
198
209
223
231
243
246
257
263
269
266
258
257
254
245
236
219
211
200
188
168
149
141
131
122
111
104
102
101
100
90
85
87
87
90
89
92
98
103
107
99
96
99
90
87
68
59
46
33
14
-12
-31
-45
-65
-77
-101
-107
-115
-120
-130
-145
-148
-147
-150
-148
-151
-145
-140
-133
-132
-132
-123
-115
-110
-107
-109
-104
-103
-104
-115
-127
-130
-137
-143
-154
-161
-164
-166
-169
-180
-186
-183
-182
-177
-177
-172
-164
-155
-148
-150
-145
-131
-126
-112
-111
-101
-91
-81
-78
-82
-82
-78
-84
-84
-99
-98
-103
-107
-117
-133
-139
-142
-148
-151
-158
-154
-152
-148
-150
-154
-148
-142
-137
-133
-131
-120
-112
-104
-106
-109
-103
-102
-102
-110
-116
-120
-127
-138
-159
-178
-190
-206
-219
-238
-251
-262
-272
-284
-304
-314
-314
-321
-319
-326
-321
-314
-303
-294
-289
-273
-247
-226
-191
-166
-121
-76
-22
29
82
150
224
302
387
473
574
680
792
900
1010
1134
1260
1387
1516
1645
1783
1919
2055
2179
2303
2436
2563
2692
2813
2938
3070
3204
3339
3471
3608
3756
3902
4052
4193
4340
4487
4635
4777
4902
5029
5152
5253
5345
5408
5464
5504
5529
5535
5517
5485
5433
5342
5226
5063
4880
4658
4403
4110
3789
3449
3086
2695
2283
1844
1394
920
431
-79
-598
-1110
-1619
-2123
-2619
-3109
-3581
-4043
-4491
-4932
-5349
-5736
-6108
-6460
-6804
-7133
-7443
-7738
-8014
-8272
-8499
-8689
-8853
-8983
-9091
-9161
-9203
-9220
-9221
-9213
-9181
-9130
-9075
-9005
-8935
-8843
-8736
-8611
-8469
-8315
-8134
-7930
-7723
-7493
-7264
-7010
-6749
-6478
-6208
-5936
-5652
-5363
-5077
-4788
-4506
-4216
-3931
-3649
-3378
-3115
-2848
-2590
-2341
-2102
-1874
-1648
-1433
-1228
-1042
-864
-685
-519
-358
-209
-65
80
218
350
471
590
711
822
933
1029
1131
1226
1317
1397
1464
1533
1603
1661
1718
1759
1804
1841
1875
1898
1908
1924
1942
1948
1958
1953
1959
1962
1964
1960
1954
1957
1962
1966
1972
1973
1986
1996
2009
2014
2017
2030
2040
2049
2055
2060
2071
2079
2085
2078
2071
2072
2065
2058
2042
2026
2013
1999
1982
1957
1936
1924
1907
1897
1877
1871
1864
1861
1854
1840
1835
1836
1832
1834
1827
1831
1833
1838
1838
1829
1832
1840
1839
1845
1839
1843
1844
1844
1836
1825
1820
1816
1807
1800
1788
1786
1782
1779
1768
1756
1756
1754
1752
1748
1744
1747
1750
1751
1744
1740
1748
1751
1758
1760
1763
1771
1777
1779
1772
1767
1769
1762
1760
1743
1738
1731
1724
1711
1691
1677
1668
1654
1646
1630
1628
1623
1621
1615
1601
1599
1603
1602
1607
1605
1614
1622
1632
1635
1634
1641
1647
1647
1646
1637
1636
1630
1623
1605
1585
1575
1562
1550
1535
1521
1514
1508
1502
1488
1479
1480
1478
1480
1477
1477
1482
1489
1495
1494
1499
1514
1519
1533
1532
1543
1551
1560
1560
1553
1550
1551
1546
1544
1531
1531
1528
1529
1524
1512
1513
1519
1521
1529
1529
1540
1550
1562
1569
1574
1588
1603
1616
1630
1640
1658
1674
1688
1692
1695
1706
1712
1716
1714
1712
1714
1715
1712
1699
1689
1689
1686
1686
1682
1682
1688
1695
1700
1698
1703
1719
1726
1743
1747
1765
1783
1803
1819
1828
1844
1864
1877
1894
1898
1916
1928
1940
1944
1940
1944
1950
1949
1951
1946
1950
1952
1955
1951
1947
1952
1957
1961
1965
1966
1976
1985
1994
1996
1999
2012
2023
2035
2041
2049
2061
2071
2076
2072
2068
2069
2066
2061
2050
2039
2028
2017
2002
1977
1959
1949
1929
1918
1894
1882
1868
1856
1839
1817
1804
1799
1787
1785
1771
1776
1777
1782
1780
1773
1774
1777
1774
1773
1763
1761
1755
1747
1731
1711
1699
1688
1673
1659
1642
1634
1624
1615
1597
1582
1577
1569
1564
1556
1552
1554
1556
1558
1553
1551
1557
1561
1566
1564
1565
1566
1567
1562
1544
1532
1526
1509
1496
1471
1454
1436
1420
1398
1371
1352
1339
1320
1309
1285
1278
1267
1258
1243
1223
1213
1204
1193
1184
1167
1158
1146
1131
1107
1077
1054
1027
995
959
917
881
840
796
741
687
644
597
553
504
460
423
386
348
304
264
232
197
165
127
96
66
38
6
-36
-70
-98
-136
-168
-213
-250
-290
-330
-377
-431
-479
-522
-575
-618
-675
-714
-757
-797
-842
-890
-927
-962
-997
-1029
-1065
-1091
-1118
-1145
-1179
-1215
-1241
-1267
-1295
-1324
-1356
-1382
-1412
-1442
-1483
-1523
-1554
-1591
-1624
-1665
-1702
-1734
-1766
-1799
-1837
-1871
-1897
-1923
-1944
-1971
-1988
-2004
-2017
-2033
-2059
-2074
-2082
-2097
-2104
-2121
-2128
-2136
-2142
-2153
-2171
-2181
-2184
-2199
-2205
-2226
-2232
-2243
-2254
-2274
-2297
-2312
-2325
-2341
-2353
-2370
-2376
-2383
-2388
-2399
-2411
-2411
-2410
-2410
-2409
-2409
-2400
-2392
-2383
-2381
-2377
-2360
-2349
-2334
-2326
-2316
-2301
-2289
-2280
-2279
-2278
-2270
-2268
-2262
-2266
-2261
-2256
-2249
-2246
-2251
-2246
-2233
-2225
-2210
-2203
-2186
-2168
-2148
-2131
-2120
-2098
-2068
-2047
-2017
-1999
-1968
-1940
-1912
-1893
-1878
-1858
-1839
-1825
-1812
-1807
-1794
-1786
-1779
-1781
-1785
-1779
-1773
-1769
-1765
-1762
-1750
-1739
-1729
-1727
-1723
-1707
-1697
-1683
-1674
-1662
-1644
-1627
-1611
-1603
-1592
-1574
-1564
-1549
-1548
-1537
-1529
-1522
-1522
-1532
-1535
-1534
-1538
-1535
-1541
-1535
-1530
-1521
-1515
-1516
-1505
-1485
-1472
-1450
-1436
-1409
-1383
-1354
-1332
-1311
-1281
-1251
-1225
-1197
-1178
-1150
-1127
-1107
-1096
-1089
-1073
-1062
-1053
-1048
-1046
-1038
-1031
-1025
-1028
-1027
-1014
-1005
-991
-981
-968
-948
-927
-908
-895
-878
-853
-834
-807
-793
-765
-740
-715
-696
-687
-673
-656
-647
-635
-636
-627
-622
-617
-619
-630
-629
-623
-624
-617
-620
-612
-604
-594
-591
-589
-577
-565
-556
-546
-541
-525
-513
-500
-495
-491
-476
-465
-455
-450
-447
-439
-435
-435
-447
-457
-460
-470
-478
-492
-504
-510
-517
-525
-540
-549
-548
-554
-551
-561
-556
-553
-547
-546
-551
-549
-540
-535
-525
-525
-513
-504
-496
-495
-505
-505
-504
-513
-519
-535
-545
-557
-570
-589
-610
-622
-632
-645
-654
-665
-665
-666
-665
-671
-676
-670
-664
-656
-652
-644
-630
-614
-600
-596
-588
-573
-563
-551
-546
-541
-534
-528
-527
-536
-542
-539
-545
-542
-551
-547
-544
-538
-536
-539
-535
-525
-520
-507
-505
-488
-474
-457
-446
-442
-427
-408
-395
-379
-371
-356
-345
-335
-335
-340
-338
-337
-342
-348
-360
-363
-369
-375
-390
-405
-409
-414
-418
-425
-428
-424
-419
-415
-420
-420
-410
-404
-394
-388
-380
-369
-358
-350
-353
-351
-342
-344
-339
-351
-353
-357
-362
-373
-390
-401
-405
-415
-416
-428
-422
-417
-410
-407
-410
-400
-387
-377
-362
-354
-336
-319
-301
-291
-283
-267
-251
-239
-229
-225
-213
-206
-201
-207
-214
-212
-215
-218
-225
-229
-227
-224
-222
-228
-230
-223
-217
-208
-203
-193
-180
-165
-152
-149
-137
-115
-103
-83
-76
-58
-42
-26
-18
-16
-10
1
1
8
0
7
7
9
5
-4
-2
2
3
8
8
18
28
39
44
48
62
76
88
100
108
127
143
158
163
168
182
190
198
198
199
201
201
196
181
166
156
145
135
120
112
106
102
98
84
80
86
84
92
88
95
103
113
121
123
133
150
158
174
175
192
204
217
220
218
223
227
226
226
218
220
220
220
213
204
205
206
206
205
203
210
215
220
216
214
223
227
236
240
248
261
274
283
283
285
291
293
296
289
288
286
283
274
255
245
243
232
228
214
210
206
204
199
187
184
187
181
184
174
181
186
193
195
193
200
208
211
216
214
220
221
221
212
199
194
187
178
167
155
151
145
139
123
110
107
99
94
83
76
74
72
68
58
52
54
55
60
58
65
72
79
80
71
69
71
65
63
50
44
35
27
13
-7
-18
-22
-36
-39
-54
-55
-58
-59
-67
-75
-74
-71
-70
-65
-64
-50
-39
-26
-21
-19
-8
1
7
10
8
12
11
8
-7
-22
-27
-37
-44
-56
-65
-68
-70
-74
-83
-88
-84
-84
-78
-81
-73
-64
-55
-49
-52
-46
-34
-29
-18
-19
-12
-7
-3
-6
-18
-22
-21
-30
-33
-48
-51
-57
-61
-72
-86
-90
-93
-96
-97
-101
-95
-89
-82
-82
-84
-74
-64
-55
-47
-41
-27
-16
-7
-9
-11
-3
-3
-2
-9
-15
-17
-21
-28
-43
-54
-56
-64
-65
-76
-73
-71
-66
-65
-72
-69
-59
-54
-43
-41
-28
-16
-1
9
10
21
37
42
52
50
57
59
60
52
39
32
24
12
2
-14
-19
-27
-34
-48
-62
-64
-67
-68
-72
-74
-68
-62
-56
-59
-58
-47
-41
-31
-27
-23
-16
-9
-6
-11
-14
-11
-18
-20
-36
-41
-49
-55
-67
-86
-96
-100
-108
-109
-118
-114
-110
-104
-102
-107
-100
-87
-81
-67
-62
-46
-32
-18
-11
-9
0
7
8
8
0
-1
-7
-16
-36
-58
-70
-85
-100
-118
-135
-144
-154
-164
-182
-196
-198
-204
-206
-211
-212
-208
-202
-197
-198
-194
-181
-176
-164
-167
-160
-156
-153
-156
-168
-174
-176
-184
-189
-204
-206
-211
-213
-220
-233
-232
-225
-223
-214
-211
-198
-186
-172
-164
-159
-145
-130
-117
-104
-97
-81
-68
-58
-58
-62
-57
-57
-59
-67
-76
-80
-87
-97
-115
-130
-135
-142
-146
-153
-155
-152
-148
-145
-150
-148
-137
-134
-123
-125
-114
-104
-91
-84
-83
-76
-65
-61
-52
-57
-49
-47
-45
-51
-65
-69
-71
-79
-82
-92
-92
-94
-93
-99
-107
-105
-102
-101
-99
-101
-93
-87
-80
-81
-81
-71
-63
-55
-52
-47
-39
-32
-30
-38
-46
-47
-55
-62
-77
-89
-99
-108
-119
-139
-151
-153
-163
-163
-174
-173
-171
-167
-167
-172
-169
-158
-153
-139
-136
-116
-101
-82
-71
-67
-54
-39
-31
-22
-21
-13
-10
-7
-13
-23
-24
-25
-29
-32
-40
-38
-37
-35
-42
-47
-41
-37
-30
-26
-18
-3
12
28
37
50
73
95
122
145
175
209
247
285
318
364
424
478
546
608
687
773
866
960
1054
1159
1274
1386
1510
1624
1760
1894
2033
2165
2292
2429
2569
2706
2843
2973
3112
3250
3390
3525
3662
3811
3962
4111
4260
4406
4559
4710
4863
5009
5154
5305
5444
5576
5688
5788
5876
5947
6000
6028
6040
6035
6002
5941
5841
5713
5551
5356
5123
4847
4548
4227
3868
3488
3070
2635
2174
1693
1190
666
141
-384
-916
-1435
-1961
-2465
-2963
-3449
-3929
-4397
-4838
-5259
-5664
-6051
-6429
-6783
-7122
-7442
-7744
-8023
-8261
-8470
-8649
-8796
-8915
-8995
-9050
-9080
-9098
-9096
-9067
-9028
-8974
-8913
-8833
-8731
-8610
-8471
-8320
-8149
-7956
-7752
-7532
-7308
-7065
-6811
-6548
-6282
-6020
-5747
-5463
-5185
-4900
-4626
-4345
-4067
-3792
-3525
-3271
-3015
-2760
-2523
-2287
-2073
-1853
-1646
-1447
-1263
-1090
-916
-749
-590
-436
-294
-147
-8
126
247
361
479
592
699
800
895
993
1084
1169
1241
1309
1381
1443
1501
1547
1590
1632
1667
1694
1709
1722
1737
1745
1755
1753
1760
1765
1772
1774
1768
1771
1783
1789
1802
1807
1823
1839
1857
1871
1878
1895
1917
1929
1949
1955
1972
1983
1992
1990
1983
1980
1976
1966
1956
1939
1930
1917
1903
1882
1859
1847
1834
1822
1810
1799
1797
1796
1795
1788
1784
1792
1794
1801
1802
1805
1813
1821
1825
1821
1819
1821
1816
1814
1797
1790
1778
1765
1746
1717
1695
1679
1658
1644
1621
1611
1601
1595
1586
1571
1569
1574
1573
1580
1577
1587
1595
1604
1608
1610
1620
1631
1638
1644
1644
1651
1654
1655
1645
1632
1629
1622
1614
1603
1591
1586
1580
1574
1559
1547
1546
1542
1542
1538
1537
1542
1547
1551
1550
1551
1561
1565
1576
1575
1587
1597
1608
1614
1609
1610
1613
1609
1608
1596
1592
1584
1577
1563
1541
1530
1526
1513
1508
1494
1492
1489
1488
1482
1475
1477
1479
1480
1483
1481
1490
1497
1506
1506
1506
1516
1523
1528
1530
1531
1536
1537
1536
1524
1514
1514
1507
1504
1495
1489
1488
1487
1484
1475
1471
1476
1474
1481
1475
1482
1486
1493
1494
1488
1489
1496
1499
1507
1504
1514
1519
1526
1524
1513
1511
1513
1505
1501
1487
1482
1474
1468
1455
1440
1435
1432
1426
1423
1415
1418
1420
1422
1417
1411
1417
1421
1426
1428
1431
1441
1451
1459
1458
1460
1470
1474
1479
1477
1475
1476
1475
1471
1457
1446
1445
1435
1434
1421
1422
1422
1424
1423
1416
1418
1427
1432
1443
1445
1461
1475
1492
1504
1510
1529
1551
1568
1589
1601
1620
1636
1651
1658
1660
1669
1677
1680
1682
1678
1683
1685
1688
1681
1674
1678
1680
1683
1683
1685
1694
1702
1710
1709
1713
1725
1736
1750
1758
1769
1784
1798
1808
1807
1811
1822
1821
1826
1816
1815
1811
1807
1796
1779
1768
1763
1751
1746
1730
1732
1731
1734
1731
1722
1725
1732
1735
1742
1743
1753
1762
1772
1775
1774
1783
1790
1792
1791
1785
1785
1780
1772
1755
1736
1725
1709
1694
1674
1658
1647
1637
1626
1607
1592
1586
1579
1574
1565
1560
1558
1557
1553
1539
1532
1533
1524
1522
1505
1496
1484
1469
1447
1416
1387
1361
1323
1291
1244
1210
1170
1132
1087
1037
996
958
917
879
836
803
768
733
693
650
616
583
548
512
473
443
410
377
333
289
254
213
173
125
79
35
-10
-59
-117
-173
-221
-272
-320
-373
-419
-462
-503
-545
-597
-641
-674
-716
-748
-790
-821
-852
-880
-912
-950
-981
-1005
-1038
-1064
-1104
-1128
-1159
-1189
-1229
-1275
-1313
-1351
-1393
-1433
-1479
-1514
-1551
-1586
-1627
-1669
-1699
-1729
-1759
-1788
-1819
-1840
-1860
-1880
-1908
-1934
-1948
-1965
-1976
-1992
-2004
-2011
-2018
-2028
-2046
-2062
-2074
-2090
-2105
-2129
-2148
-2167
-2186
-2209
-2242
-2266
-2281
-2303
-2317
-2341
-2354
-2366
-2376
-2389
-2407
-2416
-2417
-2425
-2424
-2435
-2430
-2426
-2420
-2419
-2421
-2414
-2406
-2402
-2396
-2398
-2390
-2386
-2382
-2388
-2396
-2396
-2398
-2402
-2406
-2413
-2411
-2411
-2410
-2417
-2422
-2415
-2412
-2405
-2403
-2396
-2385
-2373
-2363
-2358
-2349
-2332
-2317
-2299
-2288
-2270
-2253
-2236
-2225
-2225
-2219
-2207
-2204
-2196
-2201
-2199
-2197
-2195
-2197
-2206
-2205
-2196
-2195
-2184
-2185
-2169
-2155
-2138
-2127
-2117
-2097
-2075
-2054
-2030
-2011
-1982
-1954
-1927
-1909
-1893
-1869
-1848
-1831
-1816
-1806
-1790
-1777
-1767
-1768
-1767
-1756
-1749
-1738
-1733
-1724
-1709
-1693
-1677
-1666
-1652
-1628
-1608
-1583
-1566
-1539
-1512
-1484
-1460
-1446
-1424
-1396
-1377
-1353
-1340
-1321
-1305
-1289
-1281
-1283
-1278
-1268
-1269
-1263
-1269
-1262
-1257
-1251
-1251
-1254
-1247
-1239
-1232
-1223
-1218
-1203
-1189
-1174
-1166
-1159
-1140
-1121
-1103
-1086
-1070
-1048
-1029
-1013
-1008
-1002
-989
-983
-975
-976
-976
-973
-971
-972
-979
-983
-979
-979
-973
-977
-967
-958
-945
-938
-937
-928
-913
-902
-885
-878
-859
-841
-821
-806
-801
-787
-769
-761
-748
-749
-740
-736
-733
-738
-747
-749
-751
-755
-757
-763
-759
-755
-750
-752
-752
-741
-730
-718
-709
-699
-681
-664
-648
-640
-630
-609
-594
-576
-565
-555
-542
-531
-525
-529
-531
-527
-531
-530
-543
-543
-546
-546
-550
-561
-563
-558
-555
-545
-544
-529
-516
-500
-490
-487
-474
-455
-444
-426
-417
-398
-381
-365
-357
-351
-339
-328
-323
-317
-320
-314
-313
-313
-324
-335
-336
-339
-341
-344
-346
-338
-330
-321
-321
-316
-300
-288
-272
-260
-246
-226
-206
-187
-175
-160
-136
-121
-100
-94
-76
-62
-50
-44
-48
-46
-42
-45
-43
-53
-48
-47
-42
-43
-50
-44
-34
-28
-15
-9
7
23
39
50
58
74
92
105
120
128
145
157
167
166
162
165
164
160
151
141
135
126
116
97
81
75
66
62
53
48
49
51
52
45
43
50
50
58
54
63
70
79
82
79
82
89
88
94
87
93
94
96
88
72
66
63
55
51
41
40
38
38
33
26
30
36
39
45
46
58
69
81
85
91
107
119
133
141
149
161
170
175
169
164
165
161
157
148
140
135
130
122
107
98
99
91
92
80
81
81
83
82
76
77
84
87
97
96
111
122
134
138
134
139
145
144
145
137
135
131
126
113
98
93
88
81
76
66
68
68
70
65
61
69
75
83
87
96
110
125
139
144
153
170
182
195
200
207
215
220
221
209
201
199
185
179
160
152
142
134
120
102
91
87
77
75
62
66
67
71
68
60
63
68
70
74
71
76
77
76
66
50
42
31
16
-1
-25
-42
-61
-81
-110
-138
-156
-176
-194
-215
-231
-241
-249
-258
-272
-282
-283
-286
-286
-291
-290
-287
-283
-282
-293
-298
-297
-306
-310
-327
-337
-347
-357
-373
-396
-411
-419
-434
-438
-455
-453
-452
-448
-449
-454
-447
-438
-432
-423
-419
-406
-395
-384
-380
-378
-368
-358
-351
-345
-344
-337
-333
-332
-342
-353
-356
-365
-374
-389
-401
-408
-415
-423
-437
-448
-450
-455
-455
-462
-460
-456
-450
-447
-454
-452
-443
-440
-430
-429
-419
-410
-400
-395
-398
-393
-383
-383
-376
-383
-377
-375
-373
-377
-385
-383
-380
-378
-374
-375
-365
-356
-346
-344
-343
-330
-318
-308
-298
-290
-272
-255
-238
-230
-219
-199
-184
-167
-158
-146
-132
-119
-111
-111
-110
-103
-101
-96
-99
-93
-87
-80
-77
-82
-78
-67
-64
-54
-55
-46
-38
-27
-21
-21
-11
6
13
29
32
47
58
69
72
69
74
78
77
78
70
70
67
63
51
37
33
29
24
20
15
20
25
30
27
28
40
48
60
68
80
99
117
132
140
149
165
174
187
187
196
202
207
205
192
185
184
176
174
162
160
158
159
156
146
147
156
156
166
164
177
187
201
210
217
232
248
260
273
278
291
299
305
300
291
289
284
276
265
251
244
235
226
208
193
190
182
180
172
168
170
173
175
171
172
182
187
200
202
216
228
241
248
245
249
257
258
261
251
250
245
239
227
207
197
193
182
177
164
162
160
160
154
148
150
155
158
164
166
179
191
204
208
212
224
233
240
242
242
247
249
248
234
221
216
205
197
183
171
165
159
151
138
130
131
125
127
118
124
129
136
139
137
143
155
162
174
175
188
197
205
205
194
193
193
184
179
162
155
145
136
119
101
91
83
74
67
57
58
57
58
51
43
47
49
52
53
57
67
77
85
82
82
90
92
95
91
86
84
80
71
53
39
34
21
16
-2
-6
-11
-13
-19
-30
-34
-32
-34
-30
-37
-28
-23
-14
-11
-15
-8
4
8
17
17
25
30
34
30
24
27
33
38
48
57
83
114
151
187
231
293
360
436
516
604
703
807
915
1018
1130
1255
1381
1514
1644
1776
1911
2045
2175
2295
2418
2547
2665
2792
2908
3040
3174
3314
3454
3592
3740
3897
4050
4212
4366
4540
4710
4880
5039
5183
5326
5458
5570
5670
5747
5816
5864
5891
5883
5843
5777
5675
5533
5355
5137
4892
4613
4301
3949
3567
3167
2738
2286
1808
1314
812
300
-219
-747
-1269
-1777
-2281
-2776
-3265
-3739
-4195
-4634
-5057
-5472
-5862
-6226
-6586
-6920
-7247
-7542
-7811
-8051
-8266
-8454
-8604
-8717
-8807
-8863
-8907
-8910
-8896
-8863
-8821
-8770
-8694
-8599
-8488
-8356
-8210
-8038
-7852
-7652
-7447
-7235
-7005
-6766
-6522
-6269
-6015
-5749
-5481
-5214
-4956
-4700
-4436
-4179
-3925
-3681
-3438
-3196
-2960
-2732
-2519
-2308
-2096
-1893
-1693
-1505
-1318
-1135
-957
-788
-635
-479
-321
-178
-33
94
225
351
473
585
685
787
889
976
1065
1133
1211
1278
1340
1388
1425
1466
1502
1530
1556
1575
1600
1621
1640
1651
1658
1675
1691
1704
1717
1726
1744
1761
1779
1787
1798
1820
1838
1859
1873
1888
1907
1923
1935
1936
1937
1943
1944
1944
1935
1931
1925
1918
1908
1887
1874
1870
1857
1852
1837
1832
1827
1825
1819
1807
1804
1808
1803
1808
1800
1809
1815
1824
1826
1824
1829
1834
1836
1837
1831
1832
1828
1822
1806
1786
1774
1762
1747
1730
1711
1699
1686
1673
1651
1631
1622
1609
1598
1583
1572
1566
1560
1553
1541
1532
1532
1529
1529
1521
1521
1520
1518
1510
1491
1477
1468
1449
1435
1409
1391
1372
1354
1331
1300
1280
1268
1247
1236
1214
1208
1200
1195
1185
1172
1170
1170
1171
1174
1172
1179
1184
1189
1183
1174
1173
1168
1160
1148
1131
1121
1107
1092
1067
1044
1033
1017
1006
989
977
971
966
962
953
947
951
952
958
957
966
977
991
1001
1001
1009
1024
1031
1042
1041
1048
1051
1055
1052
1039
1035
1036
1026
1025
1012
1013
1011
1011
1006
1001
1004
1010
1015
1023
1027
1041
1053
1066
1070
1074
1088
1101
1112
1121
1127
1138
1147
1152
1147
1141
1144
1139
1136
1126
1118
1113
1108
1102
1090
1082
1084
1082
1086
1082
1089
1097
1108
1116
1115
1123
1138
1148
1164
1173
1193
1213
1235
1252
1260
1277
1298
1309
1325
1327
1338
1345
1352
1351
1346
1349
1354
1358
1364
1365
1379
1391
1404
1411
1417
1435
1452
1469
1484
1499
1521
1541
1561
1571
1583
1605
1622
1641
1654
1666
1682
1695
1704
1704
1705
1713
1712
1715
1705
1707
1707
1709
1707
1697
1695
1701
1703
1712
1712
1724
1736
1750
1761
1763
1777
1797
1810
1830
1839
1858
1874
1888
1894
1895
1903
1908
1908
1907
1897
1896
1891
1885
1872
1857
1854
1850
1847
1843
1841
1846
1851
1857
1856
1858
1871
1881
1895
1905
1917
1934
1951
1966
1974
1984
2001
2008
2020
2016
2022
2024
2025
2019
2003
1992
1985
1971
1962
1943
1937
1929
1923
1913
1896
1892
1893
1888
1890
1883
1887
1891
1895
1893
1890
1895
1900
1902
1904
1900
1904
1903
1901
1887
1870
1860
1845
1829
1807
1783
1763
1742
1718
1685
1655
1635
1610
1589
1562
1537
1517
1495
1472
1440
1412
1393
1364
1343
1309
1288
1266
1244
1216
1179
1147
1117
1079
1044
996
958
914
869
816
753
701
651
595
544
484
434
384
335
279
223
176
131
83
38
-12
-50
-90
-129
-176
-222
-258
-296
-335
-378
-422
-461
-502
-546
-601
-655
-700
-751
-802
-858
-912
-962
-1011
-1062
-1120
-1172
-1213
-1262
-1301
-1352
-1389
-1426
-1460
-1497
-1538
-1571
-1596
-1626
-1647
-1680
-1697
-1718
-1737
-1763
-1796
-1820
-1843
-1871
-1897
-1932
-1959
-1990
-2021
-2058
-2099
-2129
-2158
-2190
-2219
-2251
-2272
-2295
-2318
-2347
-2376
-2392
-2410
-2426
-2445
-2460
-2467
-2474
-2482
-2497
-2508
-2512
-2519
-2525
-2537
-2548
-2558
-2568
-2583
-2609
-2629
-2641
-2663
-2675
-2698
-2708
-2716
-2722
-2729
-2740
-2741
-2734
-2732
-2721
-2720
-2701
-2685
-2665
-2650
-2640
-2618
-2594
-2572
-2548
-2530
-2504
-2482
-2460
-2448
-2440
-2425
-2413
-2405
-2399
-2400
-2394
-2389
-2385
-2389
-2392
-2384
-2378
-2368
-2362
-2350
-2333
-2314
-2297
-2287
-2272
-2249
-2228
-2203
-2183
-2157
-2129
-2101
-2077
-2066
-2049
-2027
-2016
-2000
-1998
-1989
-1983
-1977
-1978
-1985
-1984
-1977
-1977
-1968
-1972
-1958
-1947
-1933
-1925
-1920
-1905
-1888
-1873
-1854
-1841
-1819
-1798
-1776
-1761
-1748
-1725
-1703
-1684
-1667
-1655
-1637
-1622
-1611
-1610
-1609
-1599
-1595
-1590
-1590
-1586
-1578
-1569
-1560
-1557
-1551
-1537
-1525
-1510
-1500
-1484
-1465
-1446
-1429
-1423
-1407
-1383
-1366
-1343
-1330
-1309
-1290
-1270
-1258
-1253
-1242
-1227
-1222
-1211
-1215
-1204
-1200
-1195
-1198
-1205
-1203
-1199
-1197
-1191
-1190
-1177
-1167
-1155
-1150
-1146
-1131
-1117
-1104
-1090
-1077
-1054
-1032
-1010
-998
-984
-960
-942
-923
-911
-897
-880
-865
-853
-850
-846
-836
-830
-821
-820
-810
-799
-786
-776
-775
-766
-749
-738
-719
-711
-691
-672
-651
-634
-623
-601
-572
-553
-524
-510
-483
-461
-439
-427
-419
-405
-393
-385
-378
-379
-372
-369
-367
-373
-381
-379
-378
-376
-376
-376
-366
-356
-345
-342
-337
-320
-308
-291
-280
-266
-247
-230
-215
-209
-202
-190
-184
-176
-179
-172
-168
-164
-167
-180
-185
-183
-187
-184
-191
-187
-183
-177
-174
-178
-170
-155
-149
-134
-131
-114
-99
-82
-71
-63
-46
-29
-17
-5
-1
12
20
25
21
12
12
10
5
-3
-13
-16
-20
-25
-38
-47
-45
-46
-42
-44
-41
-34
-26
-20
-20
-17
-6
0
12
12
25
35
43
45
34
29
28
18
12
-6
-15
-28
-39
-54
-78
-89
-94
-106
-108
-120
-118
-115
-110
-111
-112
-105
-96
-88
-78
-73
-56
-42
-27
-22
-18
-6
3
10
11
9
12
10
5
-11
-25
-30
-41
-47
-60
-69
-72
-75
-79
-88
-92
-88
-88
-80
-83
-71
-61
-47
-38
-37
-28
-14
-7
4
4
14
19
25
24
11
8
8
-1
-5
-19
-23
-29
-33
-42
-54
-56
-57
-59
-60
-65
-59
-55
-50
-53
-57
-51
-47
-42
-39
-35
-25
-16
-10
-15
-19
-14
-16
-17
-24
-31
-36
-42
-51
-68
-81
-85
-97
-100
-116
-116
-118
-116
-119
-126
-126
-119
-116
-107
-107
-93
-81
-67
-58
-58
-46
-31
-24
-13
-12
-3
2
5
0
-10
-14
-19
-29
-37
-51
-54
-58
-61
-73
-84
-84
-85
-85
-87
-87
-81
-74
-67
-70
-67
-55
-46
-34
-27
-19
-8
2
7
3
3
9
5
7
-7
-10
-16
-22
-32
-49
-59
-63
-73
-75
-88
-85
-85
-82
-85
-93
-90
-82
-80
-72
-71
-61
-51
-41
-38
-39
-33
-28
-28
-29
-36
-35
-38
-43
-58
-73
-79
-87
-92
-101
-106
-104
-101
-97
-101
-100
-89
-81
-70
-64
-54
-41
-27
-14
-9
2
23
33
52
55
68
79
90
96
95
101
114
123
140
148
177
208
247
287
328
388
460
535
622
708
809
911
1019
1125
1232
1352
1475
1597
1721
1840
1968
2092
2214
2326
2437
2555
2668
2782
2892
3009
3136
3264
3395
3521
3656
3806
3960
4124
4292
4472
4660
4849
5034
5205
5373
5536
5676
5809
5915
6018
6105
6176
6222
6236
6227
6188
6103
5985
5815
5623
5389
5122
4814
4467
4098
3700
3274
2827
2354
1872
1375
868
348
-174
-682
-1182
-1674
-2152
-2620
-3061
-3484
-3886
-4275
-4641
-4977
-5301
-5608
-5905
-6181
-6430
-6654
-6855
-7037
-7190
-7311
-7409
-7481
-7538
-7569
-7581
-7573
-7553
-7528
-7482
-7415
-7345
-7255
-7163
-7049
-6921
-6780
-6633
-6482
-6316
-6135
-5954
-5755
-5563
-5347
-5130
-4907
-4688
-4471
-4244
-4017
-3792
-3568
-3351
-3128
-2912
-2700
-2501
-2310
-2115
-1926
-1745
-1571
-1407
-1240
-1082
-930
-793
-661
-524
-397
-272
-159
-47
65
172
272
360
446
533
612
687
749
813
871
924
968
995
1025
1058
1078
1100
1110
1126
1140
1154
1161
1161
1169
1184
1189
1204
1206
1224
1239
1256
1266
1275
1293
1313
1333
1355
1372
1399
1422
1445
1457
1466
1483
1496
1504
1508
1507
1511
1510
1507
1493
1480
1477
1470
1466
1455
1448
1447
1445
1442
1433
1426
1427
1426
1430
1425
1432
1438
1446
1450
1444
1446
1453
1452
1455
1445
1442
1437
1430
1417
1394
1377
1365
1343
1329
1302
1289
1274
1261
1242
1222
1211
1203
1193
1185
1174
1174
1173
1174
1168
1162
1166
1170
1173
1174
1172
1177
1178
1176
1163
1149
1143
1129
1118
1098
1079
1065
1051
1036
1015
997
987
974
969
954
954
953
956
955
946
946
953
954
963
963
973
982
992
996
990
990
995
989
989
974
969
959
948
929
907
893
881
867
856
840
836
832
830
821
812
815
818
822
825
829
840
851
862
863
867
881
889
900
903
908
915
920
920
911
902
900
890
884
867
863
858
855
848
835
831
834
835
844
845
860
874
892
906
913
932
958
977
1004
1019
1046
1069
1090
1103
1111
1125
1138
1146
1153
1153
1161
1165
1168
1164
1159
1164
1168
1172
1175
1179
1191
1203
1216
1219
1227
1245
1259
1277
1289
1304
1324
1344
1362
1372
1385
1403
1412
1426
1425
1435
1441
1446
1445
1434
1430
1431
1428
1430
1424
1432
1438
1449
1456
1456
1468
1486
1497
1514
1522
1540
1556
1572
1582
1591
1608
1625
1639
1654
1663
1680
1693
1705
1708
1708
1718
1724
1728
1728
1728
1735
1741
1746
1744
1746
1759
1770
1786
1797
1812
1833
1855
1875
1888
1905
1932
1951
1979
1994
2022
2050
2078
2100
2113
2132
2153
2166
2182
2185
2200
2208
2217
2217
2208
2210
2215
2214
2218
2214
2219
2224
2231
2231
2229
2236
2244
2249
2256
2259
2272
2283
2295
2298
2300
2312
2321
2327
2329
2330
2336
2339
2338
2325
2313
2307
2296
2286
2270
2255
2244
2233
2220
2198
2183
2177
2163
2157
2139
2134
2128
2123
2115
2102
2095
2095
2089
2090
2079
2082
2080
2078
2066
2045
2031
2017
1995
1973
1941
1915
1884
1852
1812
1768
1732
1696
1656
1618
1574
1540
1503
1465
1419
1372
1336
1297
1258
1216
1176
1142
1108
1071
1025
983
947
906
866
819
772
728
681
630
568
510
459
399
346
282
228
174
122
65
3
-52
-100
-154
-200
-258
-298
-342
-382
-429
-480
-521
-560
-602
-642
-689
-728
-771
-815
-868
-926
-975
-1027
-1084
-1142
-1205
-1259
-1315
-1370
-1434
-1497
-1548
-1600
-1649
-1701
-1748
-1788
-1825
-1863
-1907
-1946
-1976
-2007
-2033
-2064
-2089
-2111
-2133
-2157
-2193
-2222
-2244
-2277
-2304
-2345
-2378
-2411
-2445
-2483
-2526
-2561
-2588
-2622
-2645
-2680
-2696
-2715
-2730
-2751
-2774
-2786
-2795
-2805
-2811
-2821
-2820
-2820
-2818
-2821
-2827
-2824
-2821
-2822
-2825
-2832
-2832
-2835
-2840
-2855
-2869
-2874
-2883
-2890
-2901
-2907
-2907
-2905
-2904
-2908
-2907
-2897
-2887
-2873
-2864
-2846
-2827
-2806
-2787
-2778
-2760
-2733
-2714
-2688
-2673
-2650
-2628
-2607
-2593
-2587
-2575
-2558
-2552
-2539
-2542
-2529
-2522
-2513
-2512
-2514
-2506
-2495
-2484
-2469
-2458
-2436
-2415
-2392
-2376
-2361
-2336
-2311
-2287
-2264
-2244
-2214
-2185
-2156
-2137
-2118
-2091
-2070
-2048
-2035
-2021
-2006
-1993
-1985
-1986
-1985
-1977
-1973
-1965
-1964
-1955
-1944
-1931
-1921
-1921
-1911
-1893
-1882
-1863
-1853
-1834
-1813
-1790
-1769
-1754
-1729
-1697
-1674
-1642
-1625
-1593
-1565
-1538
-1520
-1506
-1485
-1465
-1450
-1435
-1426
-1409
-1394
-1379
-1372
-1367
-1350
-1334
-1318
-1303
-1289
-1266
-1244
-1222
-1209
-1192
-1166
-1143
-1117
-1097
-1073
-1044
-1017
-994
-980
-966
-946
-933
-918
-915
-904
-897
-891
-890
-899
-899
-892
-891
-882
-882
-871
-859
-844
-834
-829
-813
-789
-773
-748
-734
-706
-680
-652
-631
-612
-585
-558
-536
-514
-500
-479
-464
-452
-450
-453
-448
-447
-447
-448
-451
-445
-441
-436
-439
-439
-428
-420
-407
-400
-388
-370
-352
-335
-324
-309
-288
-272
-251
-242
-223
-207
-192
-185
-189
-188
-184
-190
-191
-205
-209
-217
-223
-234
-251
-257
-255
-261
-257
-262
-254
-245
-234
-229
-224
-210
-195
-183
-169
-161
-142
-126
-111
-105
-104
-93
-87
-85
-86
-91
-90
-93
-99
-116
-131
-136
-146
-151
-161
-168
-169
-168
-168
-173
-173
-163
-160
-149
-151
-140
-130
-118
-111
-111
-103
-90
-82
-70
-70
-60
-55
-50
-53
-66
-70
-70
-80
-86
-101
-104
-108
-111
-120
-129
-129
-126
-126
-124
-126
-116
-109
-101
-101
-101
-91
-82
-72
-64
-57
-44
-33
-24
-26
-27
-20
-18
-16
-21
-26
-28
-32
-39
-54
-65
-66
-75
-76
-88
-87
-85
-82
-81
-87
-84
-75
-71
-60
-60
-45
-32
-16
-5
-3
9
24
31
41
41
49
54
57
52
42
39
36
28
22
11
10
6
3
-7
-17
-15
-16
-16
-19
-21
-16
-11
-8
-13
-14
-5
1
10
13
17
24
29
30
21
14
14
4
0
-20
-29
-40
-51
-66
-87
-101
-108
-119
-122
-135
-131
-129
-124
-123
-129
-122
-110
-103
-90
-83
-66
-50
-33
-24
-19
-8
2
7
10
5
6
3
-2
-18
-36
-45
-58
-70
-85
-99
-106
-112
-119
-134
-144
-144
-146
-143
-144
-142
-135
-126
-118
-118
-110
-93
-86
-71
-70
-59
-50
-39
-33
-31
-22
-3
12
38
59
103
151
209
269
330
410
502
599
706
813
934
1057
1186
1311
1436
1574
1715
1857
2001
2143
2293
2439
2582
2713
2839
2972
3098
3227
3353
3485
3625
3766
3908
4043
4183
4333
4482
4636
4789
4946
5105
5260
5405
5530
5649
5761
5846
5919
5958
5988
5996
5981
5933
5850
5739
5596
5408
5191
4923
4637
4315
3963
3572
3142
2692
2215
1711
1191
650
106
-447
-1001
-1560
-2113
-2647
-3170
-3680
-4173
-4649
-5093
-5514
-5914
-6302
-6669
-7007
-7329
-7631
-7917
-8178
-8410
-8613
-8789
-8943
-9065
-9150
-9208
-9237
-9247
-9227
-9182
-9114
-9028
-8934
-8812
-8662
-8503
-8317
-8128
-7914
-7688
-7452
-7212
-6971
-6717
-6450
-6187
-5913
-5649
-5366
-5086
-4805
-4533
-4268
-3998
-3731
-3471
-3215
-2972
-2726
-2491
-2265
-2053
-1853
-1649
-1451
-1263
-1083
-912
-739
-575
-417
-275
-138
4
137
266
384
500
615
724
824
912
997
1084
1161
1235
1295
1357
1413
1464
1505
1530
1557
1587
1604
1623
1629
1641
1650
1659
1663
1659
1663
1673
1674
1684
1680
1692
1701
1712
1716
1718
1729
1744
1757
1773
1783
1803
1819
1834
1839
1839
1847
1851
1851
1846
1836
1831
1822
1812
1791
1772
1763
1750
1740
1725
1716
1712
1708
1704
1694
1689
1692
1693
1698
1696
1704
1713
1723
1729
1724
1726
1733
1730
1732
1722
1718
1711
1702
1688
1664
1648
1637
1617
1606
1582
1574
1563
1555
1541
1526
1521
1518
1514
1514
1509
1516
1522
1528
1528
1527
1536
1544
1550
1555
1555
1561
1564
1564
1553
1541
1537
1526
1517
1501
1486
1476
1466
1455
1437
1424
1419
1412
1412
1403
1408
1414
1423
1428
1425
1432
1446
1455
1470
1476
1491
1504
1519
1527
1526
1533
1544
1543
1548
1538
1538
1534
1529
1515
1499
1491
1484
1474
1465
1452
1451
1448
1445
1435
1423
1422
1421
1418
1414
1408
1410
1409
1408
1397
1387
1387
1381
1377
1365
1353
1344
1333
1317
1292
1269
1251
1227
1209
1181
1167
1152
1141
1126
1104
1094
1092
1087
1090
1086
1093
1100
1109
1114
1112
1121
1138
1145
1161
1164
1178
1189
1198
1199
1195
1196
1196
1191
1185
1172
1168
1160
1153
1138
1123
1120
1117
1115
1113
1112
1120
1128
1138
1139
1145
1162
1175
1192
1205
1220
1241
1261
1279
1289
1301
1320
1329
1342
1340
1349
1354
1358
1357
1346
1343
1345
1344
1350
1348
1359
1369
1383
1393
1397
1413
1436
1452
1475
1489
1513
1535
1559
1576
1591
1614
1637
1656
1675
1685
1705
1720
1732
1735
1734
1742
1746
1748
1746
1744
1747
1750
1751
1744
1741
1749
1753
1762
1767
1774
1785
1798
1809
1813
1821
1840
1850
1869
1875
1894
1910
1928
1939
1943
1952
1965
1970
1979
1976
1985
1988
1993
1989
1977
1976
1979
1975
1976
1969
1973
1975
1977
1973
1967
1969
1972
1971
1972
1967
1973
1978
1983
1979
1976
1983
1986
1988
1984
1981
1981
1978
1972
1954
1937
1926
1909
1893
1871
1850
1834
1817
1799
1774
1755
1745
1727
1717
1696
1687
1676
1668
1654
1635
1624
1618
1607
1602
1583
1579
1570
1561
1544
1519
1502
1486
1462
1440
1408
1382
1353
1323
1285
1243
1210
1176
1139
1102
1061
1029
996
962
920
878
846
811
777
740
706
678
650
619
579
540
507
469
431
386
341
298
253
203
142
85
38
-20
-69
-130
-178
-227
-274
-325
-381
-429
-470
-516
-555
-606
-639
-676
-709
-748
-792
-826
-857
-892
-924
-965
-997
-1031
-1067
-1111
-1160
-1200
-1242
-1289
-1336
-1388
-1431
-1476
-1521
-1573
-1624
-1662
-1702
-1739
-1779
-1814
-1842
-1869
-1896
-1930
-1960
-1980
-2002
-2020
-2042
-2058
-2072
-2085
-2102
-2130
-2152
-2166
-2190
-2208
-2239
-2260
-2283
-2306
-2334
-2367
-2393
-2411
-2437
-2454
-2483
-2494
-2508
-2518
-2534
-2554
-2562
-2566
-2573
-2577
-2585
-2583
-2583
-2581
-2587
-2595
-2594
-2594
-2598
-2603
-2613
-2615
-2622
-2631
-2650
-2669
-2678
-2690
-2699
-2711
-2717
-2716
-2713
-2710
-2711
-2706
-2691
-2676
-2658
-2643
-2622
-2598
-2573
-2550
-2536
-2515
-2485
-2464
-2436
-2421
-2397
-2375
-2353
-2337
-2329
-2314
-2295
-2286
-2270
-2269
-2254
-2242
-2229
-2222
-2219
-2206
-2190
-2176
-2158
-2145
-2121
-2099
-2076
-2059
-2045
-2020
-1996
-1973
-1951
-1931
-1902
-1875
-1849
-1833
-1817
-1791
-1772
-1752
-1739
-1724
-1706
-1690
-1677
-1672
-1665
-1650
-1639
-1624
-1617
-1601
-1584
-1564
-1547
-1540
-1523
-1497
-1479
-1453
-1437
-1411
-1384
-1355
-1330
-1311
-1283
-1248
-1223
-1191
-1174
-1144
-1119
-1095
-1081
-1072
-1058
-1044
-1036
-1027
-1024
-1011
-1001
-990
-987
-985
-973
-961
-951
-941
-933
-916
-900
-883
-875
-865
-843
-824
-802
-786
-767
-744
-723
-707
-698
-689
-675
-667
-657
-659
-652
-647
-643
-643
-654
-655
-650
-651
-645
-649
-642
-634
-623
-616
-614
-602
-582
-571
-550
-541
-517
-495
-472
-455
-441
-420
-399
-382
-365
-356
-340
-331
-323
-326
-332
-329
-327
-325
-325
-324
-315
-306
-295
-291
-280
-256
-231
-197
-162
-116
-56
12
87
166
257
365
475
595
709
839
970
1106
1238
1361
1492
1628
1755
1886
2004
2129
2249
2368
2479
2583
2700
2826
2948
3081
3209
3359
3514
3677
3837
3999
4176
4358
4542
4727
4903
5085
5256
5417
5557
5680
5794
5882
5942
5968
5959
5919
5839
5716
5541
5326
5079
4785
4454
4075
3655
3202
2712
2188
1631
1056
474
-127
-731
-1352
-1965
-2579
-3188
-3795
-4398
-4976
-5528
-6063
-6573
-7071
-7538
-7989
-8426
-8855
-9281
-9681
-10059
-10426
-10763
-11085
-11367
-11619
-11835
-12019
-12165
-12264
-12324
-12348
-12330
-12279
-12177
-12041
-11870
-11673
-11444
-11172
-10874
-10549
-10206
-9845
-9464
-9073
-8675
-8282
-7883
-7474
-7073
-6671
-6280
-5892
-5506
-5128
-4759
-4406
-4056
-3708
-3376
-3046
-2739
-2429
-2133
-1844
-1571
-1315
-1062
-814
-583
-359
-156
47
235
412
572
712
852
984
1099
1210
1302
1396
1480
1557
1621
1678
1738
1795
1847
1897
1940
1992
2039
2083
2117
2148
2186
2219
2249
2273
2295
2321
2343
2361
2367
2374
2388
2395
2403
2404
2405
2409
2410
2408
2397
2390
2391
2383
2382
2368
2367
2365
2365
2362
2353
2352
2356
2355
2359
2353
2359
2360
2362
2357
2343
2341
2342
2338
2338
2331
2334
2335
2337
2332
2323
2323
2323
2319
2316
2306
2306
2303
2299
2286
2273
2271
2266
2262
2254
2247
2246
2244
2239
2224
2211
2208
2200
2194
2183
2173
2168
2163
2155
2139
2129
2128
2117
2113
2096
2091
2084
2078
2066
2048
2037
2031
2018
2012
1994
1992
1986
1983
1973
1957
1952
1951
1946
1944
1934
1933
1928
1924
1913
1900
1897
1895
1891
1888
1879
1880
1879
1876
1863
1849
1845
1836
1828
1815
1802
1794
1784
1773
1754
1738
1731
1721
1715
1704
1696
1692
1689
1683
1669
1662
1665
1658
1662
1654
1658
1663
1671
1675
1673
1678
1688
1691
1701
1697
1708
1714
1721
1719
1710
1710
1712
1710
1710
1704
1706
1706
1706
1700
1690
1690
1690
1688
1686
1680
1683
1685
1687
1682
1680
1688
1694
1703
1706
1712
1722
1731
1738
1734
1732
1736
1735
1736
1729
1726
1725
1724
1720
1706
1699
1702
1696
1698
1690
1693
1695
1700
1699
1693
1694
1702
1703
1714
1712
1727
1740
1754
1761
1762
1773
1785
1793
1802
1804
1814
1820
1826
1822
1816
1820
1823
1823
1823
1818
1824
1827
1829
1822
1816
1821
1821
1825
1823
1826
1834
1843
1851
1854
1859
1873
1883
1896
1900
1910
1919
1928
1932
1924
1923
1928
1922
1924
1913
1910
1906
1902
1895
1881
1875
1877
1870
1873
1864
1871
1877
1885
1887
1887
1898
1912
1925
1941
1951
1971
1987
2003
2009
2011
2020
2026
2028
2026
2018
2016
2012
2005
1989
1973
1968
1958
1952
1940
1932
1930
1929
1926
1917
1911
1914
1913
1917
1915
1922
1931
1941
1948
1944
1946
1955
1953
1956
1947
1945
1940
1933
1920
1898
1884
1875
1856
1846
1823
1814
1803
1794
1778
1760
1751
1743
1734
1727
1715
1715
1712
1711
1702
1691
1691
1689
1685
1679
1668
1663
1654
1642
1617
1591
1574
1548
1524
1492
1462
1436
1409
1379
1342
1306
1278
1245
1217
1180
1153
1125
1098
1066
1025
991
964
930
903
866
838
807
777
739
693
655
620
573
532
476
432
382
331
273
211
158
106
52
1
-56
-102
-150
-196
-249
-303
-347
-391
-434
-478
-521
-556
-590
-624
-666
-705
-735
-770
-803
-843
-882
-918
-957
-1000
-1053
-1106
-1153
-1208
-1257
-1316
-1363
-1412
-1458
-1509
-1567
-1616
-1658
-1704
-1742
-1788
-1822
-1856
-1886
-1919
-1957
-1983
-2001
-2026
-2042
-2069
-2084
-2101
-2117
-2140
-2166
-2185
-2205
-2230
-2254
-2286
-2308
-2332
-2355
-2384
-2414
-2431
-2449
-2464
-2480
-2494
-2500
-2504
-2507
-2519
-2526
-2521
-2520
-2514
-2513
-2509
-2498
-2487
-2479
-2479
-2477
-2468
-2468
-2463
-2472
-2469
-2469
-2469
-2476
-2491
-2498
-2500
-2506
-2506
-2515
-2512
-2508
-2501
-2499
-2502
-2493
-2477
-2467
-2449
-2439
-2417
-2396
-2373
-2355
-2338
-2313
-2288
-2267
-2246
-2234
-2214
-2200
-2188
-2187
-2189
-2182
-2179
-2178
-2181
-2183
-2179
-2175
-2171
-2176
-2176
-2164
-2156
-2142
-2133
-2120
-2102
-2083
-2065
-2053
-2037
-2011
-1993
-1967
-1953
-1926
-1902
-1877
-1859
-1849
-1835
-1817
-1806
-1793
-1792
-1779
-1771
-1762
-1758
-1763
-1756
-1744
-1738
-1726
-1721
-1704
-1688
-1670
-1657
-1645
-1624
-1602
-1583
-1562
-1546
-1518
-1492
-1466
-1448
-1431
-1405
-1383
-1362
-1347
-1333
-1316
-1301
-1289
-1288
-1286
-1276
-1271
-1262
-1258
-1252
-1241
-1229
-1218
-1212
-1201
-1179
-1166
-1143
-1132
-1108
-1086
-1063
-1044
-1031
-1011
-985
-965
-940
-927
-902
-883
-864
-855
-855
-848
-839
-838
-834
-840
-838
-837
-835
-840
-847
-844
-839
-836
-831
-829
-816
-805
-792
-788
-783
-768
-755
-741
-731
-718
-699
-682
-667
-662
-655
-641
-631
-622
-620
-618
-614
-613
-615
-628
-634
-632
-638
-636
-647
-644
-642
-637
-637
-641
-636
-625
-619
-605
-604
-586
-572
-557
-547
-545
-533
-519
-512
-503
-502
-495
-491
-490
-498
-511
-517
-524
-536
-548
-563
-569
-576
-583
-597
-610
-611
-613
-613
-617
-616
-609
-601
-593
-594
-590
-576
-565
-552
-544
-532
-518
-505
-496
-498
-495
-485
-487
-483
-494
-495
-500
-504
-512
-527
-534
-534
-541
-540
-550
-543
-539
-532
-531
-534
-526
-514
-506
-494
-488
-471
-457
-442
-435
-432
-420
-410
-405
-403
-407
-404
-406
-411
-425
-441
-447
-457
-465
-478
-487
-489
-491
-492
-498
-501
-495
-490
-482
-479
-471
-460
-448
-439
-440
-433
-417
-411
-399
-401
-394
-389
-385
-388
-398
-403
-403
-413
-416
-433
-433
-437
-439
-447
-457
-456
-453
-450
-445
-444
-433
-423
-412
-408
-407
-395
-383
-374
-365
-358
-343
-331
-321
-321
-322
-315
-314
-312
-318
-322
-324
-328
-336
-352
-364
-369
-376
-378
-387
-386
-383
-377
-372
-377
-372
-358
-351
-337
-332
-317
-301
-283
-268
-260
-243
-220
-208
-188
-184
-167
-156
-146
-146
-151
-149
-148
-150
-150
-157
-153
-151
-147
-150
-153
-146
-138
-131
-124
-119
-105
-93
-80
-76
-69
-51
-37
-20
-10
4
21
35
45
46
47
52
52
52
42
40
35
31
22
4
-6
-7
-15
-15
-23
-22
-19
-14
-11
-14
-6
8
14
30
34
52
69
87
97
104
118
131
140
148
149
157
161
163
155
143
140
136
130
124
115
115
114
114
106
102
110
114
122
125
132
144
156
167
170
176
188
195
204
201
206
208
210
205
188
177
171
157
147
127
118
107
99
87
68
61
62
56
60
54
62
68
76
79
80
89
100
109
121
126
142
154
166
168
166
172
174
173
167
158
154
147
137
117
100
92
80
71
57
47
43
41
39
33
30
37
39
48
46
56
67
79
86
85
90
101
104
110
105
108
107
105
95
75
65
59
45
38
21
16
10
6
-2
-11
-11
-8
-6
-3
-4
7
15
24
25
26
36
45
54
59
64
73
79
82
74
65
65
58
52
39
27
18
10
-1
-17
-29
-32
-41
-42
-54
-52
-49
-44
-44
-49
-47
-39
-35
-26
-27
-14
-4
7
12
7
11
18
15
16
5
2
-5
-13
-29
-48
-59
-68
-80
-90
-103
-105
-107
-108
-116
-123
-119
-117
-115
-115
-114
-106
-99
-92
-94
-93
-83
-78
-72
-72
-71
-68
-66
-69
-81
-90
-93
-105
-110
-129
-134
-141
-145
-153
-167
-172
-170
-172
-168
-174
-165
-159
-150
-147
-152
-144
-132
-126
-115
-111
-99
-90
-81
-82
-86
-84
-82
-86
-90
-102
-105
-112
-119
-136
-153
-159
-167
-174
-183
-190
-189
-188
-187
-195
-199
-193
-191
-187
-187
-185
-177
-170
-165
-169
-168
-160
-163
-159
-170
-169
-173
-176
-186
-202
-213
-219
-231
-236
-251
-250
-252
-250
-253
-260
-255
-245
-238
-226
-219
-203
-187
-170
-160
-152
-134
-115
-99
-83
-72
-54
-39
-27
-25
-25
-17
-13
-9
-12
-14
-12
-11
-11
-20
-25
-21
-21
-17
-18
-15
-9
-2
3
-1
2
16
20
35
38
54
69
85
95
99
108
121
126
136
131
140
143
147
142
129
126
125
120
117
109
110
110
111
105
98
100
103
105
107
107
117
126
137
140
144
159
170
183
189
198
209
218
224
218
214
214
209
205
194
186
181
177
172
157
152
158
155
162
157
163
169
177
181
180
185
197
202
215
214
230
239
249
249
243
243
243
237
232
217
210
198
186
167
145
134
122
109
96
81
75
69
63
48
35
32
26
24
17
16
22
28
33
32
33
41
44
50
47
49
51
52
48
31
21
17
4
-1
-17
-23
-30
-34
-41
-53
-56
-52
-56
-50
-58
-48
-41
-30
-25
-23
-11
3
14
27
33
48
60
71
74
73
80
84
85
84
80
86
92
101
105
116
144
175
217
262
320
392
472
560
651
752
869
988
1116
1241
1378
1519
1663
1803
1933
2069
2210
2338
2468
2582
2701
2817
2930
3034
3131
3238
3355
3468
3596
3716
3857
4000
4147
4291
4433
4586
4743
4900
5056
5203
5351
5485
5604
5700
5775
5843
5892
5921
5928
5907
5864
5787
5673
5512
5314
5089
4822
4525
4193
3839
3463
3063
2639
2189
1723
1248
757
262
-246
-747
-1243
-1732
-2215
-2701
-3168
-3618
-4062
-4484
-4899
-5286
-5657
-6012
-6361
-6707
-7033
-7338
-7634
-7899
-8150
-8361
-8548
-8704
-8837
-8943
-9012
-9054
-9075
-9072
-9055
-9012
-8956
-8886
-8809
-8717
-8597
-8458
-8299
-8123
-7930
-7715
-7488
-7251
-7013
-6764
-6497
-6230
-5957
-5689
-5419
-5145
-4874
-4608
-4353
-4099
-3843
-3596
-3348
-3116
-2877
-2644
-2415
-2196
-1992
-1785
-1578
-1384
-1191
-1015
-835
-664
-497
-342
-201
-56
89
217
347
457
572
677
776
860
934
1009
1077
1134
1187
1229
1276
1317
1355
1381
1404
1434
1462
1488
1511
1531
1559
1585
1610
1626
1643
1671
1693
1719
1739
1762
1787
1810
1828
1838
1849
1865
1873
1885
1883
1892
1898
1903
1902
1890
1886
1886
1882
1882
1874
1877
1879
1884
1883
1875
1878
1887
1887
1895
1893
1901
1908
1916
1918
1917
1924
1930
1931
1932
1925
1926
1922
1915
1897
1876
1863
1847
1830
1811
1790
1778
1765
1752
1731
1714
1708
1698
1693
1684
1677
1676
1676
1675
1668
1667
1675
1677
1686
1683
1692
1699
1706
1706
1697
1694
1695
1688
1684
1669
1664
1655
1648
1634
1612
1601
1595
1582
1577
1564
1562
1559
1559
1553
1545
1546
1549
1550
1553
1553
1564
1573
1582
1582
1581
1589
1593
1595
1593
1588
1587
1582
1575
1555
1538
1529
1515
1504
1488
1475
1468
1461
1454
1439
1430
1431
1425
1428
1420
1426
1430
1437
1440
1438
1443
1455
1460
1471
1469
1479
1485
1491
1489
1478
1475
1473
1464
1458
1442
1436
1428
1422
1410
1397
1394
1392
1389
1389
1385
1394
1401
1409
1409
1410
1422
1433
1446
1457
1469
1488
1505
1519
1523
1528
1541
1548
1556
1557
1558
1562
1563
1562
1551
1547
1553
1549
1555
1548
1555
1561
1569
1573
1573
1579
1592
1600
1616
1622
1644
1662
1683
1698
1706
1724
1743
1756
1771
1776
1788
1796
1802
1798
1790
1789
1787
1781
1776
1765
1765
1762
1760
1750
1741
1744
1745
1749
1749
1753
1763
1773
1782
1783
1789
1804
1817
1832
1841
1852
1865
1876
1883
1879
1880
1887
1883
1886
1875
1873
1869
1866
1858
1845
1839
1840
1836
1840
1833
1844
1852
1864
1870
1871
1883
1898
1910
1925
1935
1954
1972
1990
1999
2004
2015
2025
2028
2029
2023
2022
2017
2009
1991
1971
1962
1949
1939
1925
1915
1911
1908
1905
1895
1889
1892
1894
1898
1896
1899
1905
1913
1918
1914
1918
1930
1932
1941
1935
1938
1937
1936
1928
1913
1903
1898
1883
1876
1855
1850
1842
1836
1824
1808
1803
1802
1799
1799
1794
1799
1802
1804
1799
1791
1791
1790
1786
1781
1771
1768
1762
1753
1733
1711
1696
1675
1652
1620
1590
1563
1532
1499
1457
1418
1386
1351
1319
1281
1251
1222
1195
1166
1127
1097
1075
1045
1023
989
966
942
920
892
858
831
809
776
750
707
678
641
604
557
504
457
411
361
313
259
214
166
119
64
8
-38
-84
-132
-181
-232
-275
-319
-363
-415
-465
-503
-545
-583
-627
-668
-704
-742
-784
-833
-881
-923
-970
-1015
-1068
-1114
-1159
-1203
-1251
-1309
-1358
-1399
-1446
-1485
-1532
-1569
-1605
-1638
-1674
-1715
-1746
-1769
-1801
-1822
-1855
-1871
-1891
-1909
-1933
-1961
-1981
-2001
-2024
-2046
-2076
-2098
-2123
-2150
-2186
-2225
-2254
-2283
-2313
-2343
-2374
-2396
-2419
-2441
-2471
-2497
-2511
-2529
-2542
-2559
-2571
-2576
-2580
-2584
-2593
-2598
-2594
-2594
-2590
-2596
-2592
-2589
-2586
-2589
-2603
-2611
-2613
-2624
-2630
-2645
-2651
-2656
-2658
-2664
-2676
-2676
-2669
-2670
-2660
-2662
-2648
-2635
-2620
-2609
-2599
-2579
-2556
-2535
-2510
-2491
-2460
-2432
-2405
-2387
-2372
-2349
-2330
-2314
-2303
-2295
-2282
-2272
-2265
-2267
-2267
-2257
-2252
-2242
-2239
-2231
-2216
-2201
-2187
-2179
-2167
-2146
-2129
-2105
-2092
-2065
-2040
-2012
-1990
-1977
-1957
-1933
-1916
-1895
-1886
-1868
-1855
-1841
-1834
-1837
-1831
-1820
-1819
-1810
-1812
-1801
-1790
-1778
-1770
-1764
-1748
-1731
-1716
-1698
-1685
-1660
-1638
-1615
-1599
-1584
-1558
-1534
-1511
-1492
-1475
-1452
-1433
-1417
-1412
-1407
-1394
-1388
-1380
-1380
-1379
-1374
-1370
-1367
-1369
-1368
-1357
-1352
-1339
-1337
-1320
-1305
-1286
-1271
-1261
-1243
-1219
-1199
-1173
-1156
-1128
-1103
-1078
-1060
-1051
-1034
-1013
-1002
-987
-985
-975
-969
-964
-968
-975
-975
-974
-976
-975
-980
-973
-968
-961
-961
-961
-950
-940
-929
-920
-910
-893
-876
-861
-854
-844
-826
-813
-800
-794
-787
-778
-770
-767
-773
-777
-774
-780
-779
-791
-789
-788
-784
-783
-788
-784
-773
-766
-751
-747
-729
-714
-696
-682
-676
-658
-635
-618
-595
-580
-555
-533
-511
-497
-488
-471
-456
-447
-438
-437
-427
-421
-416
-420
-424
-417
-412
-407
-404
-398
-386
-375
-364
-362
-356
-341
-329
-315
-305
-292
-274
-256
-240
-232
-219
-199
-189
-172
-172
-161
-153
-146
-146
-153
-154
-150
-150
-143
-146
-134
-124
-110
-102
-100
-87
-70
-57
-40
-30
-11
5
22
33
41
58
75
88
102
110
126
138
149
151
150
158
162
165
164
165
174
184
196
204
222
255
292
342
397
466
552
651
758
866
989
1130
1268
1423
1570
1734
1902
2073
2239
2398
2564
2734
2897
3062
3212
3373
3527
3682
3832
3977
4136
4300
4462
4629
4793
4969
5146
5325
5495
5658
5822
5974
6106
6222
6316
6401
6464
6505
6514
6496
6456
6378
6261
6098
5895
5654
5371
5047
4676
4270
3833
3357
2852
2314
1755
1176
577
-41
-677
-1309
-1929
-2551
-3156
-3762
-4342
-4903
-5440
-5957
-6458
-6931
-7379
-7818
-8236
-8659
-9059
-9459
-9848
-10231
-10606
-10952
-11275
-11576
-11844
-12082
-12270
-12419
-12522
-12588
-12611
-12578
-12501
-12386
-12231
-12041
-11805
-11535
-11233
-10910
-10563
-10186
-9796
-9391
-8981
-8560
-8130
-7700
-7272
-6854
-6439
-6022
-5616
-5215
-4829
-4447
-4073
-3710
-3361
-3035
-2714
-2397
-2102
-1810
-1541
-1274
-1019
-776
-548
-339
-134
65
243
419
569
724
865
999
1117
1223
1332
1435
1529
1620
1698
1781
1856
1926
1983
2034
2089
2140
2184
2222
2254
2290
2321
2348
2363
2376
2397
2411
2424
2430
2438
2448
2457
2462
2460
2459
2466
2470
2479
2481
2492
2505
2519
2530
2530
2537
2552
2557
2567
2564
2569
2572
2574
2569
2556
2550
2547
2534
2529
2509
2504
2494
2484
2467
2445
2432
2420
2405
2393
2376
2370
2363
2359
2349
2337
2337
2335
2332
2328
2321
2322
2321
2318
2305
2292
2288
2276
2267
2251
2237
2226
2214
2199
2177
2157
2144
2127
2114
2091
2078
2066
2056
2042
2019
2007
2003
1995
1994
1986
1988
1990
1994
1993
1985
1984
1989
1983
1984
1969
1967
1959
1952
1937
1918
1907
1898
1885
1874
1857
1849
1838
1828
1811
1792
1784
1776
1769
1762
1756
1760
1764
1768
1764
1763
1772
1776
1782
1782
1784
1789
1792
1791
1781
1772
1769
1761
1756
1741
1735
1728
1722
1710
1689
1677
1671
1659
1654
1641
1638
1635
1636
1633
1624
1627
1638
1640
1651
1649
1660
1668
1676
1675
1671
1672
1674
1671
1667
1656
1655
1651
1647
1633
1618
1614
1609
1603
1595
1586
1584
1581
1579
1568
1561
1566
1568
1576
1580
1587
1600
1614
1624
1628
1634
1646
1651
1660
1655
1662
1665
1667
1663
1649
1641
1639
1630
1625
1611
1607
1602
1599
1590
1574
1569
1571
1565
1568
1563
1571
1580
1592
1598
1602
1615
1629
1640
1652
1658
1673
1683
1691
1689
1685
1689
1688
1687
1681
1674
1673
1670
1666
1653
1642
1642
1637
1637
1631
1629
1633
1639
1644
1645
1651
1668
1680
1700
1708
1729
1748
1769
1783
1790
1802
1818
1827
1840
1842
1854
1863
1873
1877
1872
1878
1889
1893
1903
1904
1916
1928
1940
1947
1952
1966
1982
1996
2012
2025
2049
2071
2093
2106
2118
2138
2155
2169
2179
2187
2198
2206
2211
2204
2198
2201
2199
2200
2195
2191
2192
2194
2194
2186
2183
2189
2187
2194
2189
2198
2206
2216
2223
2223
2231
2243
2250
2261
2259
2270
2274
2279
2276
2263
2258
2256
2244
2238
2222
2214
2205
2195
2178
2160
2151
2144
2133
2125
2111
2108
2103
2098
2083
2068
2063
2057
2050
2040
2030
2025
2017
2006
1983
1960
1943
1919
1894
1862
1829
1797
1763
1725
1677
1633
1599
1554
1518
1468
1431
1393
1356
1314
1267
1227
1192
1152
1118
1073
1044
1012
982
946
903
870
839
801
764
719
680
636
590
534
473
420
366
308
250
188
135
80
25
-38
-100
-151
-204
-255
-309
-360
-405
-449
-494
-547
-595
-633
-674
-712
-756
-799
-839
-880
-924
-979
-1031
-1075
-1132
-1181
-1247
-1302
-1359
-1415
-1476
-1543
-1602
-1655
-1714
-1763
-1823
-1865
-1909
-1948
-1992
-2040
-2075
-2107
-2140
-2169
-2202
-2224
-2247
-2269
-2299
-2331
-2355
-2381
-2411
-2441
-2477
-2505
-2537
-2569
-2611
-2653
-2685
-2718
-2749
-2783
-2812
-2835
-2855
-2875
-2901
-2921
-2932
-2943
-2950
-2961
-2966
-2966
-2963
-2962
-2969
-2968
-2958
-2957
-2950
-2956
-2953
-2952
-2953
-2960
-2975
-2984
-2987
-3000
-3003
-3020
-3019
-3022
-3020
-3024
-3031
-3025
-3016
-3006
-2992
-2982
-2961
-2940
-2916
-2898
-2883
-2857
-2831
-2807
-2783
-2763
-2735
-2711
-2689
-2678
-2668
-2651
-2640
-2628
-2624
-2618
-2609
-2601
-2594
-2596
-2594
-2584
-2576
-2565
-2559
-2547
-2532
-2515
-2501
-2497
-2484
-2463
-2450
-2429
-2418
-2396
-2374
-2352
-2335
-2327
-2312
-2293
-2286
-2273
-2275
-2263
-2258
-2253
-2257
-2267
-2269
-2270
-2273
-2274
-2281
-2277
-2275
-2271
-2273
-2276
-2266
-2256
-2245
-2234
-2225
-2206
-2187
-2167
-2155
-2141
-2114
-2092
-2066
-2048
-2027
-2004
-1983
-1966
-1957
-1947
-1932
-1921
-1907
-1901
-1887
-1872
-1856
-1842
-1838
-1824
-1803
-1787
-1765
-1752
-1728
-1704
-1678
-1655
-1638
-1612
-1578
-1551
-1516
-1494
-1456
-1423
-1389
-1363
-1342
-1315
-1289
-1268
-1249
-1238
-1219
-1206
-1194
-1191
-1191
-1181
-1172
-1165
-1158
-1153
-1138
-1124
-1110
-1104
-1096
-1077
-1063
-1046
-1035
-1020
-1000
-979
-960
-948
-934
-913
-898
-879
-871
-854
-840
-827
-820
-824
-821
-812
-810
-803
-806
-800
-793
-784
-778
-778
-768
-750
-741
-723
-716
-695
-675
-655
-641
-630
-611
-590
-572
-554
-541
-520
-504
-490
-487
-487
-479
-475
-474
-476
-481
-479
-480
-481
-491
-498
-494
-494
-489
-490
-485
-474
-461
-449
-441
-429
-409
-392
-370
-357
-332
-309
-285
-266
-257
-242
-223
-213
-199
-197
-188
-184
-179
-181
-192
-195
-191
-195
-191
-198
-190
-183
-174
-170
-167
-156
-142
-131
-117
-110
-92
-76
-61
-53
-47
-31
-17
-5
3
8
19
26
29
21
14
15
10
6
-4
-13
-17
-20
-26
-37
-44
-42
-43
-37
-40
-30
-20
-8
0
0
8
23
34
50
58
76
92
108
117
115
122
133
133
137
129
129
126
122
111
97
92
89
84
81
74
80
84
91
90
90
101
111
121
129
137
153
168
181
184
189
202
209
216
215
215
216
214
208
194
181
176
162
156
137
132
124
120
111
97
92
93
91
96
91
101
107
117
121
118
126
140
146
158
159
169
175
180
177
168
166
161
152
144
129
122
112
103
86
69
62
54
48
39
33
35
36
37
30
25
31
32
36
35
35
39
42
42
32
24
24
12
7
-14
-23
-37
-50
-70
-99
-121
-138
-159
-175
-200
-210
-222
-230
-243
-262
-268
-269
-275
-276
-284
-282
-282
-281
-287
-295
-294
-293
-295
-297
-305
-305
-308
-312
-326
-342
-349
-358
-369
-383
-395
-401
-406
-412
-425
-434
-432
-432
-428
-428
-424
-415
-405
-397
-397
-390
-372
-364
-346
-340
-323
-306
-289
-278
-274
-266
-254
-250
-241
-247
-238
-236
-235
-240
-253
-256
-256
-260
-260
-266
-263
-260
-255
-257
-261
-255
-247
-242
-235
-231
-216
-203
-190
-185
-180
-166
-155
-145
-140
-134
-124
-117
-114
-122
-128
-129
-135
-138
-148
-154
-157
-158
-160
-169
-171
-162
-161
-150
-151
-140
-128
-115
-107
-103
-91
-73
-62
-43
-37
-17
-4
10
15
12
17
23
22
22
13
11
6
1
-10
-24
-29
-32
-36
-38
-42
-34
-27
-19
-19
-19
-9
-3
4
6
13
25
37
45
44
44
50
50
50
41
35
30
23
12
-10
-25
-31
-47
-53
-71
-77
-82
-86
-92
-103
-105
-100
-102
-94
-98
-84
-74
-61
-55
-53
-41
-28
-19
-11
-10
-3
0
2
-7
-20
-25
-33
-44
-57
-73
-80
-89
-99
-116
-131
-134
-139
-140
-144
-143
-137
-130
-125
-125
-122
-110
-99
-85
-77
-62
-46
-31
-20
-22
-18
-8
-9
-6
-17
-21
-27
-33
-43
-60
-67
-66
-73
-70
-79
-71
-66
-56
-52
-50
-38
-25
-13
2
11
31
49
66
76
81
95
106
112
116
114
118
118
116
104
91
88
80
75
65
60
61
62
63
59
58
65
70
79
80
91
102
115
123
121
129
145
152
164
165
173
179
183
181
169
163
162
149
144
124
117
108
101
88
74
69
66
62
61
55
61
65
70
69
66
73
80
85
89
91
101
109
115
111
106
110
106
104
93
83
77
68
55
34
15
3
-13
-23
-43
-52
-60
-66
-76
-96
-107
-111
-122
-127
-141
-145
-149
-151
-157
-169
-170
-166
-171
-170
-182
-183
-189
-195
-210
-228
-239
-251
-266
-279
-298
-305
-314
-323
-338
-355
-360
-364
-366
-368
-369
-360
-350
-338
-334
-325
-304
-287
-265
-248
-229
-205
-184
-166
-156
-144
-126
-115
-101
-100
-89
-82
-74
-71
-77
-74
-65
-61
-49
-46
-31
-17
-1
12
18
35
60
75
99
113
139
163
188
205
219
239
257
270
281
284
294
299
301
292
279
275
268
260
251
242
240
239
238
229
223
229
230
236
237
242
253
265
276
281
290
308
320
337
341
356
367
377
380
372
370
370
364
360
344
340
333
328
317
299
292
292
284
285
276
280
282
286
284
280
284
290
293
298
297
305
311
317
313
307
309
308
306
300
293
291
289
286
276
273
285
298
321
346
382
432
491
557
624
703
800
897
1008
1112
1232
1356
1486
1615
1739
1871
2009
2140
2274
2393
2522
2644
2765
2877
2977
3087
3201
3311
3432
3549
3682
3818
3960
4098
4237
4388
4544
4701
4863
5020
5184
5338
5483
5604
5708
5805
5882
5941
5978
5994
5992
5959
5893
5783
5639
5465
5250
5001
4712
4394
4050
3678
3278
2847
2398
1936
1447
951
433
-80
-596
-1110
-1623
-2134
-2630
-3112
-3588
-4045
-4498
-4918
-5323
-5708
-6085
-6457
-6806
-7137
-7457
-7752
-8030
-8272
-8487
-8671
-8832
-8965
-9059
-9124
-9166
-9185
-9186
-9159
-9118
-9060
-8994
-8912
-8800
-8671
-8520
-8353
-8165
-7956
-7734
-7502
-7269
-7022
-6758
-6490
-6216
-5944
-5670
-5393
-5118
-4848
-4589
-4329
-4062
-3810
-3554
-3316
-3072
-2834
-2601
-2378
-2167
-1955
-1744
-1544
-1344
-1162
-971
-792
-618
-458
-310
-159
-10
128
264
386
511
627
737
832
917
1004
1084
1154
1217
1267
1321
1364
1401
1425
1444
1470
1490
1508
1518
1530
1544
1556
1564
1563
1565
1574
1580
1589
1592
1599
1609
1620
1629
1628
1634
1649
1654
1665
1662
1668
1670
1672
1666
1652
1642
1636
1622
1614
1592
1587
1577
1568
1553
1534
1525
1519
1511
1507
1497
1497
1497
1497
1492
1486
1491
1497
1500
1505
1506
1515
1521
1525
1520
1514
1517
1515
1513
1506
1500
1498
1495
1489
1475
1464
1460
1454
1451
1444
1442
1443
1446
1447
1438
1439
1449
1450
1460
1458
1467
1476
1486
1491
1488
1490
1497
1493
1495
1481
1480
1472
1465
1449
1427
1414
1402
1386
1374
1357
1351
1344
1340
1331
1320
1321
1324
1325
1326
1326
1336
1346
1356
1359
1364
1381
1392
1406
1413
1422
1433
1442
1447
1441
1436
1436
1432
1429
1417
1412
1408
1404
1398
1383
1378
1383
1381
1387
1383
1389
1396
1405
1409
1408
1415
1429
1435
1451
1453
1471
1485
1499
1504
1504
1510
1516
1518
1521
1515
1518
1517
1515
1505
1492
1490
1487
1483
1478
1473
1477
1480
1483
1479
1477
1487
1494
1504
1510
1520
1535
1550
1563
1570
1577
1590
1598
1607
1606
1612
1615
1617
1613
1596
1585
1580
1566
1558
1541
1533
1526
1522
1514
1501
1499
1506
1505
1514
1512
1526
1538
1552
1559
1565
1580
1597
1611
1627
1636
1655
1668
1680
1683
1681
1688
1691
1692
1691
1686
1688
1689
1690
1682
1678
1685
1688
1697
1700
1708
1722
1737
1750
1759
1771
1792
1809
1832
1845
1868
1891
1913
1930
1935
1945
1957
1961
1966
1959
1958
1954
1950
1938
1917
1906
1901
1888
1884
1869
1869
1868
1870
1867
1863
1867
1873
1877
1883
1884
1895
1904
1914
1916
1917
1928
1937
1945
1949
1951
1958
1962
1962
1951
1940
1937
1927
1920
1905
1893
1885
1877
1867
1851
1840
1839
1832
1833
1823
1826
1828
1833
1833
1825
1824
1831
1831
1837
1832
1837
1839
1840
1834
1818
1809
1804
1787
1774
1747
1729
1708
1688
1662
1633
1614
1598
1579
1564
1546
1539
1530
1523
1507
1490
1483
1474
1463
1449
1434
1425
1414
1402
1378
1357
1343
1323
1303
1276
1249
1225
1199
1169
1129
1092
1061
1023
992
949
918
886
855
820
777
742
713
678
649
610
583
552
523
487
444
411
383
346
315
273
239
202
163
115
62
16
-30
-81
-132
-189
-235
-284
-331
-385
-440
-483
-528
-572
-618
-663
-701
-740
-779
-826
-870
-903
-940
-973
-1010
-1045
-1074
-1103
-1135
-1174
-1210
-1237
-1274
-1305
-1351
-1385
-1421
-1457
-1500
-1549
-1592
-1629
-1671
-1706
-1749
-1777
-1807
-1831
-1860
-1894
-1916
-1931
-1952
-1965
-1985
-1994
-2003
-2010
-2022
-2036
-2041
-2045
-2053
-2061
-2075
-2080
-2090
-2102
-2124
-2148
-2163
-2183
-2204
-2227
-2250
-2266
-2282
-2298
-2323
-2342
-2350
-2361
-2367
-2377
-2383
-2383
-2381
-2381
-2387
-2387
-2376
-2374
-2361
-2361
-2348
-2337
-2325
-2318
-2319
-2314
-2306
-2305
-2299
-2307
-2300
-2300
-2297
-2300
-2310
-2308
-2301
-2298
-2289
-2286
-2272
-2258
-2243
-2234
-2225
-2205
-2184
-2165
-2144
-2125
-2096
-2069
-2040
-2020
-2001
-1974
-1951
-1929
-1913
-1897
-1879
-1863
-1850
-1848
-1844
-1833
-1825
-1815
-1811
-1804
-1794
-1783
-1774
-1774
-1767
-1751
-1742
-1725
-1720
-1703
-1685
-1666
-1651
-1641
-1624
-1600
-1584
-1561
-1550
-1525
-1507
-1487
-1475
-1472
-1459
-1445
-1438
-1429
-1428
-1420
-1414
-1409
-1412
-1417
-1412
-1407
-1403
-1398
-1395
-1383
-1372
-1362
-1360
-1356
-1341
-1328
-1312
-1299
-1283
-1261
-1240
-1221
-1211
-1200
-1183
-1169
-1155
-1149
-1139
-1128
-1118
-1112
-1116
-1112
-1098
-1094
-1080
-1078
-1064
-1050
-1034
-1022
-1015
-1000
-978
-964
-940
-930
-902
-878
-851
-830
-813
-786
-758
-733
-708
-692
-667
-648
-631
-624
-622
-613
-607
-605
-603
-607
-603
-601
-600
-607
-613
-607
-605
-599
-598
-592
-581
-570
-559
-554
-546
-529
-514
-496
-485
-467
-449
-432
-420
-422
-417
-407
-408
-402
-410
-411
-413
-415
-421
-434
-438
-436
-442
-439
-449
-443
-441
-438
-441
-447
-445
-440
-438
-434
-435
-426
-419
-411
-412
-416
-411
-409
-412
-417
-428
-432
-441
-452
-473
-495
-508
-526
-541
-561
-577
-588
-597
-609
-626
-639
-644
-650
-652
-661
-660
-658
-654
-653
-661
-661
-653
-653
-646
-651
-649
-648
-646
-651
-663
-668
-668
-678
-680
-697
-697
-699
-699
-705
-712
-709
-702
-695
-683
-675
-653
-630
-602
-576
-545
-496
-439
-373
-298
-214
-111
2
122
240
366
509
652
803
949
1103
1264
1427
1590
1748
1913
2087
2259
2436
2604
2784
2966
3154
3343
3527
3722
3928
4131
4341
4546
4763
4980
5199
5412
5611
5807
5995
6157
6309
6429
6540
6623
6679
6697
6677
6629
6544
6416
6248
6033
5789
5503
5181
4813
4405
3970
3501
3000
2471
1915
1347
761
164
-448
-1057
-1655
-2253
-2840
-3423
-3988
-4531
-5058
-5569
-6071
-6557
-7023
-7484
-7932
-8384
-8816
-9236
-9637
-10022
-10394
-10732
-11033
-11306
-11534
-11728
-11866
-11960
-12006
-12009
-11974
-11884
-11746
-11579
-11367
-11131
-10850
-10542
-10207
-9858
-9494
-9110
-8715
-8317
-7912
-7513
-7106
-6704
-6307
-5923
-5547
-5167
-4796
-4432
-4077
-3730
-3385
-3051
-2727
-2423
-2126
-1830
-1550
-1277
-1022
-776
-538
-312
-100
93
277
454
613
764
892
1019
1134
1239
1329
1401
1473
1542
1600
1658
1701
1753
1799
1846
1885
1916
1958
2004
2042
2087
2120
2164
2203
2242
2271
2295
2326
2355
2379
2403
2419
2442
2461
2477
2481
2483
2491
2496
2499
2499
2497
2500
2502
2501
2492
2486
2491
2491
2494
2493
2494
2500
2505
2508
2503
2501
2506
2502
2505
2494
2496
2495
2495
2489
2474
2466
2462
2451
2445
2428
2423
2414
2407
2393
2370
2358
2350
2335
2327
2310
2304
2297
2291
2278
2264
2257
2250
2241
2233
2219
2215
2208
2201
2186
2171
2166
2161
2155
2146
2137
2134
2130
2123
2106
2090
2082
2070
2059
2043
2026
2014
2000
1985
1962
1944
1935
1917
1909
1887
1878
1868
1860
1848
1829
1817
1811
1800
1796
1780
1779
1774
1772
1764
1747
1741
1739
1730
1725
1712
1706
1698
1690
1674
1654
1643
1631
1616
1601
1581
1570
1557
1544
1522
1500
1487
1472
1458
1440
1425
1415
1406
1396
1379
1366
1362
1355
1351
1342
1336
1333
1330
1325
1310
1301
1300
1289
1286
1269
1265
1260
1256
1247
1233
1225
1224
1216
1215
1203
1206
1206
1208
1205
1195
1197
1204
1209
1218
1222
1235
1247
1258
1262
1262
1270
1276
1277
1276
1269
1269
1266
1261
1246
1231
1225
1218
1213
1205
1202
1205
1208
1210
1204
1203
1210
1216
1226
1232
1244
1259
1276
1292
1299
1314
1337
1348
1367
1372
1386
1397
1408
1411
1407
1408
1413
1411
1416
1408
1417
1423
1431
1434
1432
1442
1455
1465
1478
1487
1505
1522
1541
1553
1564
1586
1607
1626
1644
1657
1677
1694
1708
1711
1713
1724
1729
1735
1734
1735
1740
1744
1746
1739
1736
1742
1745
1752
1755
1763
1774
1787
1797
1799
1809
1828
1839
1860
1870
1891
1911
1932
1947
1955
1969
1986
1994
2007
2004
2015
2020
2024
2018
2005
2001
1998
1991
1987
1976
1975
1972
1969
1960
1947
1946
1944
1940
1936
1930
1933
1936
1938
1932
1928
1934
1935
1938
1934
1932
1932
1930
1923
1905
1887
1874
1856
1839
1816
1799
1784
1770
1754
1729
1714
1709
1696
1692
1678
1675
1674
1674
1671
1663
1665
1674
1674
1683
1679
1689
1695
1700
1696
1686
1682
1676
1665
1653
1633
1620
1603
1584
1557
1527
1507
1486
1463
1439
1413
1396
1377
1358
1330
1303
1287
1266
1247
1223
1203
1186
1169
1148
1120
1092
1069
1040
1013
975
942
906
869
824
767
715
668
612
563
503
452
400
351
297
236
185
142
91
50
-3
-41
-82
-121
-166
-214
-252
-289
-329
-368
-415
-454
-497
-542
-597
-657
-710
-765
-824
-886
-952
-1010
-1070
-1129
-1198
-1263
-1316
-1373
-1425
-1481
-1533
-1578
-1622
-1666
-1716
-1762
-1799
-1839
-1873
-1915
-1945
-1976
-2005
-2039
-2083
-2119
-2151
-2190
-2225
-2272
-2310
-2350
-2390
-2435
-2487
-2528
-2561
-2602
-2633
-2674
-2698
-2723
-2745
-2771
-2797
-2813
-2826
-2839
-2850
-2866
-2870
-2875
-2879
-2891
-2905
-2908
-2913
-2921
-2931
-2944
-2949
-2957
-2966
-2986
-3004
-3011
-3022
-3028
-3039
-3046
-3046
-3044
-3043
-3045
-3041
-3028
-3018
-3001
-2994
-2975
-2956
-2935
-2918
-2910
-2893
-2869
-2850
-2825
-2811
-2786
-2765
-2743
-2727
-2721
-2707
-2688
-2680
-2665
-2663
-2650
-2640
-2629
-2625
-2622
-2610
-2595
-2582
-2565
-2552
-2528
-2505
-2480
-2463
-2446
-2418
-2392
-2365
-2339
-2312
-2278
-2245
-2213
-2191
-2167
-2133
-2105
-2076
-2055
-2034
-2010
-1987
-1969
-1958
-1945
-1923
-1909
-1887
-1877
-1855
-1833
-1808
-1787
-1772
-1749
-1719
-1693
-1661
-1638
-1603
-1569
-1533
-1501
-1478
-1444
-1404
-1372
-1335
-1309
-1274
-1244
-1215
-1194
-1178
-1157
-1137
-1122
-1108
-1102
-1086
-1074
-1062
-1059
-1057
-1044
-1032
-1019
-1009
-997
-978
-959
-942
-933
-922
-901
-884
-864
-849
-832
-811
-790
-774
-766
-757
-742
-737
-727
-732
-725
-721
-718
-720
-729
-731
-727
-727
-721
-723
-711
-701
-687
-677
-673
-657
-635
-619
-597
-583
-559
-537
-513
-496
-482
-461
-443
-430
-419
-416
-406
-401
-399
-408
-418
-420
-426
-432
-441
-449
-451
-452
-454
-463
-467
-462
-459
-453
-450
-444
-433
-420
-409
-407
-398
-380
-371
-354
-352
-338
-328
-318
-316
-323
-326
-325
-332
-333
-347
-349
-355
-360
-371
-387
-392
-391
-395
-392
-395
-388
-381
-372
-370
-370
-361
-350
-343
-335
-333
-320
-311
-302
-302
-305
-299
-298
-297
-302
-307
-308
-311
-316
-332
-345
-350
-358
-363
-372
-379
-381
-381
-383
-393
-396
-389
-390
-383
-387
-379
-371
-361
-355
-354
-346
-332
-326
-314
-315
-302
-295
-286
-286
-294
-293
-292
-297
-301
-313
-316
-321
-326
-337
-350
-352
-353
-357
-359
-364
-359
-354
-350
-354
-358
-351
-346
-340
-338
-334
-325
-317
-313
-320
-324
-322
-326
-330
-342
-353
-362
-374
-389
-414
-431
-439
-455
-463
-482
-489
-496
-502
-511
-524
-530
-528
-534
-531
-540
-531
-525
-515
-512
-515
-508
-499
-495
-489
-490
-483
-480
-477
-482
-491
-490
-491
-495
-499
-506
-504
-503
-502
-508
-514
-508
-505
-500
-499
-493
-481
-469
-458
-454
-446
-430
-416
-400
-391
-378
-365
-353
-347
-352
-351
-344
-348
-345
-356
-360
-364
-367
-375
-387
-392
-389
-393
-388
-394
-383
-374
-363
-357
-354
-341
-326
-313
-296
-285
-264
-244
-224
-211
-203
-186
-172
-162
-155
-153
-144
-140
-138
-147
-156
-156
-160
-161
-168
-171
-168
-164
-161
-164
-164
-156
-150
-141
-138
-126
-113
-97
-84
-81
-70
-51
-41
-26
-23
-13
-4
4
5
-2
-2
3
-3
-1
-12
-8
-8
-6
-11
-18
-16
-11
-8
-2
-1
12
23
36
41
44
58
71
83
94
103
119
131
141
140
139
146
145
144
136
130
126
120
110
94
81
76
68
65
54
53
53
54
53
43
42
49
50
59
58
69
79
92
100
101
110
125
128
138
134
141
144
145
138
128
123
118
111
105
93
93
90
88
79
69
70
70
71
71
70
78
86
95
95
99
113
124
137
144
153
166
177
184
182
181
186
183
183
172
169
166
163
156
140
132
131
126
128
122
126
130
137
140
137
144
158
163
176
179
194
207
220
224
225
231
236
237
237
229
229
224
217
199
180
171
160
149
137
125
123
121
119
108
101
106
106
111
110
113
121
129
136
136
139
149
152
159
152
155
155
153
143
122
106
94
75
60
36
23
9
-3
-18
-41
-51
-54
-64
-65
-75
-73
-71
-67
-68
-70
-64
-57
-53
-47
-49
-41
-38
-38
-49
-63
-71
-82
-97
-117
-138
-155
-173
-193
-222
-248
-263
-282
-296
-314
-327
-334
-339
-344
-354
-359
-353
-353
-345
-347
-335
-323
-309
-300
-300
-293
-283
-279
-271
-275
-268
-267
-265
-271
-287
-293
-294
-302
-303
-312
-310
-308
-305
-306
-309
-302
-293
-287
-277
-272
-255
-241
-225
-216
-207
-187
-168
-150
-137
-125
-109
-96
-86
-88
-89
-83
-84
-83
-89
-94
-95
-97
-100
-110
-114
-108
-110
-102
-106
-97
-89
-79
-73
-75
-68
-56
-49
-35
-32
-15
-1
15
24
23
31
41
42
45
38
38
35
30
17
1
-6
-13
-21
-27
-36
-35
-34
-32
-37
-41
-34
-28
-21
-16
-10
4
17
31
34
41
57
67
78
81
85
91
94
92
80
70
68
55
50
32
27
20
16
8
-4
-7
-4
-4
4
0
14
24
36
43
43
55
71
83
98
106
122
135
147
151
151
158
165
166
169
169
179
190
204
215
232
267
305
353
404
466
541
623
711
798
895
1004
1115
1231
1348
1471
1601
1733
1863
1986
2112
2243
2363
2488
2598
2717
2832
2947
3059
3168
3288
3419
3550
3693
3829
3986
4142
4304
4462
4618
4788
4962
5130
5297
5448
5596
5727
5844
5937
6011
6077
6123
6143
6137
6096
6030
5925
5783
5595
5372
5124
4840
4527
4178
3803
3407
2985
2538
2062
1572
1076
568
57
-461
-971
-1473
-1968
-2459
-2951
-3423
-3873
-4315
-4731
-5142
-5527
-5898
-6255
-6603
-6940
-7249
-7529
-7790
-8015
-8224
-8385
-8519
-8622
-8702
-8760
-8783
-8780
-8759
-8718
-8666
-8588
-8496
-8386
-8264
-8126
-7961
-7779
-7586
-7382
-7172
-6946
-6715
-6476
-6240
-5998
-5743
-5490
-5235
-4988
-4741
-4492
-4247
-4010
-3785
-3562
-3337
-3120
-2904
-2699
-2492
-2289
-2089
-1897
-1719
-1538
-1355
-1186
-1015
-860
-702
-548
-400
-262
-136
-9
119
232
348
443
548
641
729
803
865
929
987
1037
1082
1115
1152
1183
1210
1228
1242
1264
1285
1303
1321
1335
1358
1380
1401
1414
1427
1451
1471
1494
1511
1532
1558
1583
1606
1620
1633
1652
1665
1678
1681
1689
1695
1699
1697
1683
1676
1675
1667
1666
1655
1654
1653
1655
1653
1645
1646
1654
1654
1663
1660
1673
1682
1693
1698
1699
1709
1718
1723
1728
1725
1732
1733
1733
1722
1706
1699
1689
1676
1661
1644
1635
1624
1613
1593
1576
1569
1559
1553
1542
1537
1536
1536
1534
1526
1521
1523
1523
1528
1525
1531
1536
1542
1542
1530
1524
1523
1511
1504
1484
1473
1458
1444
1424
1398
1382
1373
1355
1347
1328
1325
1321
1320
1314
1307
1309
1311
1312
1314
1311
1319
1324
1330
1327
1322
1325
1325
1322
1316
1306
1302
1295
1284
1263
1244
1233
1217
1205
1187
1173
1165
1158
1151
1139
1132
1133
1131
1134
1127
1134
1140
1148
1152
1148
1152
1163
1169
1179
1179
1189
1195
1202
1202
1193
1193
1198
1192
1192
1181
1180
1177
1176
1168
1159
1159
1161
1161
1163
1161
1170
1178
1186
1186
1184
1192
1199
1207
1213
1218
1230
1239
1247
1245
1243
1250
1251
1253
1249
1245
1245
1242
1236
1221
1209
1206
1198
1197
1185
1186
1187
1189
1188
1179
1178
1185
1186
1193
1191
1201
1210
1224
1233
1235
1247
1266
1276
1292
1297
1310
1321
1331
1333
1330
1335
1338
1337
1335
1327
1329
1327
1326
1317
1306
1307
1307
1307
1305
1304
1310
1317
1324
1322
1325
1338
1349
1363
1372
1384
1402
1419
1434
1442
1453
1471
1479
1493
1492
1503
1510
1517
1519
1513
1514
1520
1521
1527
1524
1535
1542
1554
1560
1558
1570
1586
1597
1615
1625
1646
1665
1688
1704
1718
1740
1761
1778
1794
1802
1818
1829
1837
1834
1829
1832
1832
1833
1829
1826
1830
1833
1835
1827
1823
1829
1831
1837
1837
1839
1845
1851
1855
1852
1853
1864
1866
1877
1873
1882
1887
1893
1892
1883
1879
1879
1871
1868
1851
1848
1840
1833
1819
1796
1785
1777
1763
1755
1739
1733
1726
1720
1707
1691
1685
1680
1672
1667
1658
1659
1658
1656
1643
1629
1622
1611
1598
1579
1560
1543
1523
1499
1464
1429
1402
1371
1341
1305
1273
1244
1216
1186
1147
1113
1089
1055
1031
993
968
942
918
889
853
823
798
765
737
695
666
630
595
550
495
450
406
355
307
251
204
155
106
51
-6
-53
-98
-145
-190
-238
-276
-315
-353
-398
-442
-474
-508
-540
-575
-608
-636
-666
-699
-740
-781
-814
-853
-891
-936
-978
-1020
-1062
-1107
-1162
-1210
-1249
-1296
-1334
-1382
-1417
-1453
-1485
-1522
-1562
-1594
-1619
-1650
-1673
-1706
-1721
-1738
-1752
-1772
-1797
-1812
-1824
-1841
-1855
-1877
-1892
-1910
-1929
-1955
-1986
-2008
-2030
-2054
-2078
-2106
-2124
-2143
-2162
-2188
-2213
-2225
-2240
-2253
-2269
-2280
-2285
-2289
-2293
-2304
-2311
-2307
-2305
-2300
-2301
-2298
-2294
-2291
-2293
-2307
-2315
-2317
-2329
-2334
-2352
-2361
-2370
-2377
-2390
-2407
-2416
-2418
-2428
-2427
-2439
-2433
-2430
-2423
-2422
-2424
-2417
-2406
-2396
-2382
-2373
-2354
-2336
-2318
-2308
-2302
-2288
-2275
-2267
-2260
-2259
-2250
-2245
-2243
-2250
-2257
-2253
-2253
-2250
-2252
-2248
-2239
-2228
-2217
-2213
-2204
-2185
-2167
-2145
-2128
-2104
-2077
-2049
-2022
-2005
-1980
-1947
-1923
-1894
-1878
-1853
-1832
-1811
-1796
-1790
-1777
-1761
-1755
-1742
-1742
-1727
-1716
-1703
-1695
-1690
-1675
-1657
-1640
-1620
-1604
-1577
-1551
-1524
-1504
-1487
-1458
-1430
-1403
-1377
-1355
-1325
-1300
-1278
-1268
-1259
-1241
-1231
-1220
-1217
-1212
-1204
-1198
-1194
-1197
-1197
-1188
-1183
-1173
-1170
-1158
-1144
-1128
-1114
-1110
-1097
-1076
-1061
-1040
-1029
-1010
-991
-972
-959
-954
-942
-925
-920
-909
-913
-905
-901
-898
-905
-915
-919
-921
-924
-925
-930
-923
-917
-908
-906
-904
-892
-879
-866
-854
-843
-822
-802
-783
-772
-758
-734
-716
-696
-684
-671
-655
-642
-635
-636
-638
-635
-637
-637
-647
-648
-649
-649
-652
-665
-667
-662
-660
-651
-649
-636
-623
-606
-593
-585
-568
-543
-526
-500
-486
-460
-439
-418
-407
-400
-387
-376
-371
-366
-369
-364
-364
-366
-377
-390
-392
-394
-395
-396
-397
-388
-379
-368
-366
-360
-343
-330
-314
-303
-289
-269
-250
-233
-223
-212
-195
-186
-172
-172
-162
-155
-148
-148
-158
-160
-158
-162
-160
-167
-163
-160
-154
-153
-159
-153
-141
-136
-122
-119
-104
-92
-78
-72
-68
-55
-40
-27
-14
-7
9
20
29
28
24
27
28
26
20
12
9
5
0
-14
-23
-23
-27
-27
-32
-33
-28
-23
-19
-22
-21
-11
-7
4
3
15
26
37
43
39
42
48
47
49
39
39
34
30
20
0
-9
-12
-23
-27
-39
-40
-40
-39
-43
-49
-45
-40
-38
-33
-34
-24
-17
-10
-10
-11
-1
7
14
18
20
28
34
36
26
17
16
8
1
-12
-23
-29
-36
-44
-59
-69
-68
-73
-70
-78
-71
-65
-55
-50
-52
-46
-34
-26
-12
-9
7
18
31
35
30
33
39
34
31
17
10
-1
-14
-35
-58
-73
-87
-103
-117
-135
-141
-148
-154
-166
-179
-179
-180
-178
-179
-177
-167
-157
-148
-148
-145
-134
-127
-119
-118
-116
-112
-111
-113
-124
-132
-132
-142
-144
-159
-161
-163
-163
-168
-177
-180
-177
-178
-172
-176
-165
-157
-145
-138
-138
-125
-107
-95
-79
-71
-56
-44
-32
-29
-31
-26
-23
-26
-29
-39
-40
-44
-48
-60
-71
-71
-72
-72
-75
-76
-71
-66
-61
-65
-64
-54
-47
-35
-28
-18
-4
9
20
20
24
36
36
43
35
35
32
28
18
1
-9
-14
-25
-28
-43
-41
-43
-40
-44
-53
-49
-42
-39
-30
-27
-14
-3
10
16
18
28
36
40
42
38
41
40
38
25
11
7
-1
-8
-20
-29
-32
-34
-37
-48
-55
-53
-54
-51
-52
-49
-43
-36
-31
-35
-31
-17
-13
1
2
13
23
32
35
31
32
38
34
36
23
25
22
20
12
-2
-5
-7
-11
-12
-17
-12
-9
-4
-5
-9
-2
5
9
14
16
29
41
52
54
55
65
71
77
77
78
83
86
85
74
66
63
58
55
48
46
47
50
49
40
39
48
48
57
55
62
69
79
84
85
93
109
116
132
133
148
158
168
168
163
166
168
166
163
154
153
149
146
135
121
118
115
110
106
100
103
104
106
100
95
101
103
108
109
114
125
135
142
141
142
148
150
153
148
147
146
143
135
115
102
98
84
78
61
53
46
42
35
22
19
24
19
25
18
27
34
44
47
48
57
67
74
80
79
86
88
88
77
62
55
45
31
16
-1
-10
-21
-32
-52
-68
-73
-81
-86
-94
-99
-97
-94
-93
-97
-98
-90
-85
-74
-72
-60
-49
-38
-33
-40
-39
-35
-40
-42
-55
-62
-72
-82
-97
-119
-131
-137
-152
-157
-175
-176
-179
-179
-186
-194
-192
-189
-188
-185
-188
-181
-176
-171
-175
-182
-181
-183
-189
-198
-211
-218
-228
-241
-265
-288
-302
-321
-335
-355
-369
-376
-383
-388
-399
-405
-403
-403
-397
-400
-391
-382
-371
-365
-368
-362
-351
-347
-337
-339
-332
-328
-323
-325
-335
-337
-334
-342
-343
-358
-361
-366
-369
-378
-388
-390
-389
-389
-385
-387
-376
-367
-357
-354
-353
-339
-326
-313
-301
-290
-272
-256
-241
-237
-233
-220
-213
-205
-204
-203
-199
-196
-197
-206
-212
-211
-216
-214
-224
-220
-217
-211
-210
-216
-213
-205
-201
-191
-191
-179
-167
-153
-143
-140
-127
-108
-98
-83
-80
-68
-59
-51
-52
-58
-57
-58
-63
-67
-77
-78
-82
-85
-97
-107
-107
-108
-108
-110
-112
-106
-101
-96
-100
-99
-88
-80
-68
-62
-53
-40
-28
-19
-18
-15
-6
-6
-1
-10
-8
-9
-9
-14
-27
-32
-31
-35
-32
-38
-30
-23
-13
-8
-11
-2
13
21
36
43
59
75
91
100
106
119
132
139
146
144
151
152
151
141
127
123
118
112
104
97
96
96
95
87
83
89
92
98
101
106
116
128
138
141
150
168
178
194
197
210
221
231
234
228
228
231
227
228
215
217
215
214
208
196
195
200
199
205
203
211
218
227
229
230
240
252
261
272
277
292
304
315
315
313
320
322
321
314
306
302
295
284
263
246
238
227
220
208
199
196
194
190
179
176
182
180
187
181
190
198
208
213
212
217
227
230
237
231
238
238
239
230
212
203
196
182
173
156
148
138
128
112
94
86
80
70
63
51
50
47
45
35
25
27
26
27
25
25
29
31
30
18
8
3
-6
-15
-31
-46
-58
-69
-82
-102
-114
-116
-126
-126
-137
-135
-133
-129
-128
-132
-128
-118
-114
-101
-101
-84
-71
-55
-47
-47
-39
-29
-26
-22
-27
-26
-28
-31
-44
-61
-69
-78
-89
-99
-113
-117
-123
-127
-140
-152
-152
-155
-156
-160
-160
-155
-148
-142
-143
-141
-132
-125
-116
-114
-110
-104
-99
-99
-110
-115
-113
-121
-122
-136
-139
-141
-140
-139
-141
-130
-106
-84
-46
-14
43
103
173
245
319
411
512
616
727
836
957
1079
1204
1322
1438
1564
1689
1810
1926
2037
2155
2269
2381
2483
2587
2705
2824
2952
3082
3223
3375
3533
3694
3852
4016
4191
4369
4554
4733
4918
5099
5274
5435
5570
5699
5820
5914
5997
6050
6089
6102
6086
6032
5935
5811
5656
5456
5231
4959
4673
4354
4008
3631
3228
2812
2378
1925
1459
977
498
13
-470
-956
-1438
-1904
-2363
-2814
-3255
-3686
-4093
-4487
-4867
-5243
-5607
-5948
-6278
-6584
-6873
-7133
-7358
-7552
-7716
-7856
-7963
-8033
-8078
-8093
-8094
-8065
-8020
-7958
-7885
-7807
-7705
-7579
-7444
-7285
-7122
-6937
-6741
-6537
-6330
-6125
-5906
-5675
-5450
-5214
-4991
-4754
-4521
-4288
-4064
-3844
-3618
-3393
-3172
-2950
-2737
-2517
-2302
-2089
-1889
-1694
-1494
-1299
-1110
-927
-752
-575
-405
-242
-93
52
200
336
469
587
702
813
916
1008
1085
1157
1229
1290
1346
1388
1435
1476
1515
1546
1563
1587
1617
1637
1663
1678
1701
1723
1747
1765
1774
1793
1819
1835
1859
1869
1893
1912
1931
1940
1944
1954
1963
1967
1970
1964
1966
1963
1959
1945
1930
1924
1918
1910
1901
1890
1888
1886
1883
1870
1860
1861
1856
1854
1846
1841
1841
1840
1838
1828
1821
1820
1812
1808
1791
1784
1772
1760
1742
1713
1690
1671
1646
1628
1601
1584
1567
1553
1535
1510
1497
1491
1478
1474
1459
1457
1455
1455
1450
1443
1445
1448
1449
1450
1445
1449
1449
1446
1434
1417
1408
1395
1379
1359
1335
1318
1300
1280
1252
1229
1215
1198
1186
1169
1156
1149
1142
1134
1121
1111
1110
1105
1107
1098
1103
1107
1112
1112
1103
1100
1102
1096
1094
1079
1074
1065
1057
1041
1015
1001
993
976
966
948
941
933
928
917
905
902
902
899
898
894
901
906
912
910
909
917
924
929
930
930
934
937
935
921
909
904
894
885
871
860
854
848
841
829
822
825
822
828
822
830
838
849
855
854
861
875
883
897
901
917
928
940
945
939
942
947
943
942
931
927
920
914
902
888
885
884
882
883
881
891
900
910
913
916
930
943
958
970
984
1004
1024
1042
1050
1061
1080
1092
1106
1112
1119
1129
1137
1142
1138
1138
1146
1145
1153
1149
1159
1167
1179
1187
1189
1200
1218
1231
1251
1260
1284
1304
1327
1345
1355
1378
1403
1423
1446
1459
1479
1496
1511
1517
1518
1526
1532
1533
1532
1526
1529
1530
1531
1524
1517
1523
1528
1535
1540
1548
1563
1579
1594
1601
1613
1633
1651
1672
1687
1705
1727
1749
1767
1775
1786
1803
1807
1818
1812
1817
1818
1819
1814
1801
1795
1795
1789
1791
1781
1789
1794
1801
1803
1799
1806
1817
1823
1833
1836
1850
1862
1874
1881
1885
1899
1911
1919
1925
1924
1930
1932
1931
1919
1905
1901
1892
1883
1869
1859
1854
1849
1843
1830
1820
1820
1818
1819
1816
1816
1820
1825
1827
1819
1819
1828
1828
1837
1832
1838
1842
1845
1842
1831
1825
1821
1808
1801
1778
1770
1756
1742
1721
1693
1675
1659
1639
1623
1600
1587
1571
1556
1533
1506
1489
1472
1451
1430
1406
1389
1370
1349
1318
1285
1259
1226
1193
1152
1111
1071
1026
976
915
853
796
734
673
604
540
479
420
358
286
223
170
108
55
-9
-62
-114
-163
-214
-270
-318
-358
-406
-445
-499
-537
-580
-622
-672
-729
-778
-827
-879
-931
-988
-1036
-1086
-1135
-1190
-1248
-1294
-1340
-1386
-1431
-1479
-1516
-1554
-1591
-1636
-1679
-1709
-1742
-1771
-1803
-1830
-1851
-1872
-1895
-1927
-1956
-1979
-2006
-2032
-2066
-2094
-2122
-2150
-2183
-2226
-2261
-2287
-2320
-2345
-2379
-2403
-2425
-2444
-2465
-2492
-2510
-2519
-2535
-2541
-2559
-2559
-2562
-2561
-2566
-2575
-2574
-2573
-2575
-2576
-2584
-2583
-2586
-2589
-2602
-2619
-2627
-2636
-2648
-2661
-2676
-2682
-2690
-2697
-2712
-2724
-2724
-2727
-2725
-2728
-2725
-2716
-2705
-2695
-2691
-2682
-2664
-2648
-2627
-2613
-2590
-2567
-2544
-2526
-2520
-2506
-2488
-2480
-2466
-2464
-2455
-2448
-2439
-2435
-2437
-2430
-2416
-2410
-2393
-2389
-2368
-2350
-2329
-2315
-2302
-2279
-2254
-2230
-2204
-2183
-2152
-2123
-2095
-2075
-2058
-2032
-2008
-1987
-1969
-1956
-1936
-1920
-1907
-1904
-1901
-1888
-1880
-1868
-1861
-1849
-1832
-1813
-1794
-1781
-1763
-1737
-1713
-1683
-1663
-1630
-1598
-1565
-1534
-1514
-1484
-1449
-1420
-1387
-1366
-1336
-1309
-1284
-1266
-1258
-1242
-1222
-1214
-1199
-1198
-1184
-1173
-1160
-1154
-1149
-1135
-1119
-1103
-1085
-1072
-1047
-1024
-1000
-983
-967
-941
-916
-891
-869
-848
-821
-796
-773
-762
-751
-731
-719
-705
-699
-694
-685
-679
-676
-680
-681
-675
-674
-666
-669
-657
-646
-632
-622
-619
-608
-590
-578
-561
-553
-535
-519
-500
-486
-481
-466
-447
-439
-424
-423
-413
-407
-402
-405
-412
-413
-414
-419
-421
-429
-426
-426
-424
-430
-436
-430
-424
-417
-411
-405
-390
-375
-360
-354
-344
-324
-309
-291
-280
-268
-253
-241
-234
-236
-237
-232
-236
-235
-248
-249
-252
-254
-262
-276
-283
-283
-287
-285
-292
-286
-282
-275
-273
-277
-271
-258
-253
-240
-235
-220
-206
-192
-185
-183
-173
-164
-159
-155
-158
-152
-151
-151
-161
-174
-177
-181
-186
-193
-198
-196
-194
-192
-200
-203
-197
-194
-187
-185
-181
-170
-160
-150
-146
-138
-121
-114
-100
-102
-92
-86
-80
-83
-95
-103
-108
-121
-131
-154
-164
-179
-192
-210
-238
-253
-264
-280
-290
-307
-314
-321
-326
-336
-347
-349
-349
-351
-350
-354
-347
-343
-339
-345
-353
-352
-356
-362
-373
-384
-391
-401
-413
-433
-450
-457
-467
-473
-483
-488
-488
-487
-487
-493
-493
-482
-479
-466
-466
-452
-440
-426
-416
-413
-403
-390
-385
-374
-377
-368
-364
-359
-362
-376
-379
-381
-387
-390
-399
-399
-400
-399
-404
-409
-404
-398
-395
-389
-387
-374
-363
-352
-349
-344
-329
-316
-303
-295
-287
-275
-265
-258
-262
-265
-262
-264
-265
-274
-281
-284
-287
-291
-303
-309
-304
-307
-299
-303
-295
-286
-276
-269
-267
-257
-241
-229
-210
-203
-178
-158
-136
-122
-115
-99
-83
-73
-62
-60
-52
-48
-44
-49
-57
-56
-54
-56
-56
-61
-56
-52
-48
-51
-54
-45
-38
-29
-24
-15
0
15
28
34
43
60
73
87
94
102
112
120
123
114
111
114
106
104
90
86
82
80
74
64
62
67
66
75
71
86
97
111
118
121
135
151
165
182
192
210
224
236
238
234
237
239
234
227
214
209
200
191
173
155
147
137
130
121
117
120
123
126
121
120
128
134
143
146
155
165
176
182
178
180
187
183
183
169
163
154
144
129
106
90
80
62
55
35
32
27
26
19
10
11
15
16
19
18
27
34
41
42
40
48
55
59
62
60
66
68
69
60
51
51
46
42
32
25
22
20
17
8
3
6
7
11
9
14
21
28
33
27
29
39
41
50
49
57
64
72
74
70
73
80
78
82
72
76
76
76
67
54
50
46
40
36
27
29
28
28
20
10
10
9
7
4
-2
1
3
5
-1
-5
2
3
6
2
0
2
1
-4
-16
-28
-33
-44
-51
-67
-74
-82
-88
-99
-118
-127
-128
-132
-127
-127
-113
-95
-67
-38
-7
41
103
165
243
316
412
509
612
711
811
920
1034
1146
1261
1370
1489
1604
1718
1823
1926
2039
2152
2264
2377
2493
2622
2756
2898
3036
3182
3345
3510
3684
3858
4043
4240
4443
4646
4840
5032
5221
5390
5549
5679
5803
5908
5997
6062
6096
6113
6107
6061
5984
5860
5706
5513
5285
5019
4714
4391
4045
3661
3261
2826
2384
1922
1445
950
446
-52
-547
-1041
-1527
-2011
-2476
-2932
-3375
-3812
-4234
-4628
-5007
-5373
-5731
-6078
-6406
-6720
-7013
-7289
-7534
-7737
-7914
-8058
-8178
-8266
-8321
-8351
-8359
-8353
-8324
-8268
-8203
-8117
-8030
-7919
-7796
-7657
-7510
-7359
-7190
-7006
-6820
-6621
-6426
-6214
-5999
-5778
-5558
-5344
-5116
-4879
-4650
-4412
-4185
-3946
-3710
-3472
-3244
-3019
-2790
-2563
-2343
-2125
-1917
-1703
-1498
-1298
-1113
-936
-757
-588
-429
-281
-142
-5
121
236
334
426
521
604
684
754
822
890
954
1013
1063
1113
1169
1216
1266
1301
1347
1388
1429
1461
1484
1512
1544
1569
1598
1616
1643
1665
1685
1698
1701
1713
1729
1734
1744
1743
1751
1757
1764
1764
1762
1769
1777
1782
1790
1793
1806
1817
1828
1830
1831
1842
1850
1858
1863
1868
1881
1891
1900
1899
1899
1908
1910
1914
1912
1909
1909
1908
1903
1890
1880
1878
1868
1866
1851
1849
1847
1847
1842
1830
1826
1827
1822
1823
1814
1819
1820
1825
1825
1819
1824
1833
1835
1842
1839
1845
1847
1849
1842
1831
1826
1821
1811
1800
1784
1777
1767
1757
1737
1717
1707
1693
1680
1663
1648
1639
1629
1619
1600
1585
1580
1572
1568
1559
1555
1554
1555
1552
1540
1533
1533
1523
1521
1503
1497
1488
1480
1465
1444
1430
1421
1407
1400
1381
1379
1373
1369
1361
1346
1343
1344
1341
1343
1339
1345
1352
1359
1361
1361
1370
1378
1383
1387
1384
1390
1391
1391
1379
1366
1361
1351
1341
1326
1312
1304
1294
1282
1262
1246
1239
1228
1220
1207
1197
1192
1187
1181
1166
1159
1162
1157
1161
1152
1155
1156
1158
1156
1146
1142
1143
1136
1136
1123
1124
1122
1122
1117
1106
1108
1113
1115
1121
1121
1131
1141
1151
1154
1156
1168
1180
1190
1201
1210
1229
1246
1263
1270
1277
1292
1303
1314
1318
1325
1334
1341
1345
1339
1335
1338
1340
1344
1344
1349
1357
1368
1376
1374
1382
1398
1406
1424
1431
1449
1469
1491
1510
1523
1545
1573
1592
1618
1629
1655
1675
1696
1707
1711
1723
1734
1740
1748
1748
1758
1764
1771
1771
1769
1777
1786
1793
1801
1806
1821
1834
1848
1854
1861
1880
1896
1916
1930
1949
1972
1994
2013
2022
2033
2049
2061
2073
2077
2086
2093
2100
2102
2093
2091
2098
2095
2101
2095
2099
2103
2109
2110
2105
2108
2118
2119
2128
2126
2140
2151
2165
2171
2174
2184
2195
2202
2209
2209
2216
2218
2219
2211
2198
2192
2184
2173
2161
2145
2138
2128
2118
2100
2084
2079
2069
2062
2050
2042
2040
2038
2034
2026
2020
2023
2023
2027
2022
2024
2026
2027
2023
2007
1997
1992
1977
1967
1943
1926
1907
1889
1865
1834
1810
1793
1767
1748
1716
1699
1680
1662
1637
1609
1589
1571
1551
1533
1510
1496
1478
1459
1430
1396
1370
1340
1305
1266
1222
1183
1140
1094
1037
980
934
882
833
777
725
679
633
586
533
484
443
399
361
315
280
245
212
175
129
91
60
21
-14
-61
-101
-144
-189
-240
-301
-354
-403
-463
-516
-582
-634
-689
-742
-801
-861
-912
-959
-1007
-1052
-1101
-1138
-1176
-1212
-1255
-1299
-1331
-1363
-1395
-1429
-1464
-1492
-1522
-1556
-1599
-1643
-1678
-1721
-1763
-1812
-1860
-1904
-1950
-1998
-2051
-2101
-2141
-2185
-2223
-2270
-2302
-2333
-2362
-2394
-2433
-2462
-2484
-2510
-2528
-2554
-2568
-2583
-2596
-2613
-2638
-2652
-2662
-2681
-2693
-2719
-2733
-2752
-2770
-2796
-2824
-2845
-2863
-2882
-2898
-2918
-2925
-2933
-2938
-2949
-2959
-2956
-2953
-2947
-2942
-2935
-2919
-2903
-2886
-2878
-2867
-2844
-2827
-2808
-2794
-2779
-2760
-2743
-2731
-2727
-2724
-2714
-2713
-2706
-2714
-2709
-2707
-2704
-2704
-2712
-2712
-2704
-2700
-2688
-2685
-2670
-2655
-2637
-2624
-2619
-2601
-2578
-2561
-2536
-2521
-2495
-2471
-2447
-2431
-2419
-2399
-2381
-2367
-2354
-2348
-2334
-2324
-2314
-2313
-2312
-2299
-2287
-2274
-2262
-2248
-2227
-2206
-2186
-2175
-2160
-2135
-2114
-2089
-2070
-2049
-2024
-1998
-1975
-1959
-1940
-1912
-1894
-1870
-1860
-1839
-1821
-1804
-1794
-1792
-1785
-1773
-1767
-1756
-1755
-1740
-1728
-1712
-1700
-1696
-1678
-1655
-1638
-1614
-1599
-1573
-1547
-1520
-1500
-1481
-1453
-1425
-1399
-1372
-1351
-1322
-1298
-1276
-1265
-1257
-1240
-1228
-1217
-1212
-1207
-1198
-1191
-1187
-1192
-1193
-1184
-1179
-1169
-1164
-1155
-1143
-1129
-1116
-1111
-1100
-1080
-1069
-1048
-1039
-1018
-998
-977
-962
-952
-938
-920
-909
-893
-890
-873
-862
-850
-846
-852
-847
-840
-839
-833
-835
-826
-819
-809
-806
-804
-793
-781
-772
-762
-756
-740
-726
-711
-703
-695
-677
-661
-644
-633
-621
-606
-593
-583
-585
-586
-579
-577
-575
-579
-582
-580
-579
-580
-589
-592
-585
-586
-578
-582
-573
-564
-553
-546
-545
-536
-521
-511
-493
-486
-462
-442
-421
-407
-402
-387
-371
-362
-352
-350
-341
-335
-331
-333
-339
-336
-332
-332
-330
-332
-322
-314
-306
-305
-304
-292
-282
-271
-265
-256
-241
-225
-211
-205
-195
-177
-163
-148
-140
-130
-120
-111
-107
-114
-116
-112
-118
-115
-125
-124
-122
-118
-118
-122
-119
-109
-106
-93
-93
-76
-63
-47
-38
-33
-17
2
17
34
44
63
77
90
94
93
98
101
98
94
83
81
75
69
55
42
40
35
33
27
25
29
33
37
33
33
42
47
55
57
64
72
79
82
72
67
69
59
55
38
28
17
5
-12
-37
-55
-67
-87
-98
-122
-128
-137
-142
-154
-169
-174
-177
-181
-183
-190
-187
-185
-182
-186
-191
-186
-182
-180
-180
-183
-179
-178
-180
-191
-203
-205
-212
-218
-230
-239
-242
-244
-248
-258
-265
-265
-266
-264
-268
-264
-258
-251
-247
-253
-252
-242
-242
-234
-237
-230
-223
-216
-215
-221
-220
-214
-219
-217
-229
-227
-230
-232
-241
-253
-256
-256
-258
-257
-259
-250
-241
-231
-227
-225
-212
-199
-188
-177
-168
-150
-133
-117
-110
-101
-82
-69
-54
-46
-36
-23
-13
-7
-10
-13
-11
-14
-13
-21
-21
-21
-19
-21
-32
-34
-29
-31
-25
-29
-22
-14
-4
2
3
14
31
40
56
58
73
82
90
89
83
82
79
71
63
47
39
27
16
-2
-21
-30
-39
-48
-56
-64
-62
-59
-56
-61
-62
-51
-45
-35
-30
-21
-6
8
19
23
27
38
42
48
43
47
47
46
39
20
10
6
-3
-7
-19
-21
-23
-21
-24
-32
-30
-19
-17
-6
-6
8
20
35
43
50
65
80
91
101
103
112
116
117
107
93
86
77
64
48
32
24
15
6
-12
-26
-26
-30
-29
-33
-33
-27
-21
-15
-15
-12
0
7
19
20
33
43
53
56
49
48
50
44
42
28
22
13
5
-9
-31
-42
-46
-57
-60
-71
-69
-67
-62
-63
-65
-59
-51
-46
-39
-38
-26
-16
-7
-6
-8
-1
2
2
-1
-7
-7
-10
-16
-33
-48
-55
-66
-75
-89
-100
-104
-108
-112
-121
-126
-120
-121
-114
-118
-108
-100
-90
-85
-87
-81
-68
-60
-47
-45
-32
-23
-13
-10
-18
-16
-10
-14
-12
-21
-21
-23
-25
-33
-43
-45
-46
-48
-50
-57
-53
-51
-50
-55
-62
-58
-56
-54
-54
-54
-47
-41
-36
-41
-46
-43
-46
-49
-60
-71
-80
-91
-106
-129
-149
-159
-178
-188
-210
-218
-226
-231
-240
-255
-262
-262
-267
-265
-273
-266
-260
-250
-245
-248
-239
-225
-219
-208
-205
-194
-185
-177
-178
-182
-180
-178
-181
-183
-190
-187
-186
-185
-193
-201
-199
-199
-199
-202
-204
-199
-195
-191
-197
-198
-190
-183
-172
-166
-156
-143
-129
-119
-118
-113
-101
-100
-93
-100
-97
-98
-99
-105
-117
-123
-122
-127
-123
-130
-120
-112
-101
-96
-96
-84
-67
-54
-35
-23
-2
19
40
54
64
82
97
108
116
117
125
128
128
118
106
103
96
89
78
70
68
65
62
52
47
53
56
64
68
77
90
104
117
123
136
158
171
193
201
219
236
252
261
263
268
277
277
282
272
278
278
281
278
269
272
280
284
293
297
310
323
336
343
347
361
375
386
397
403
418
429
439
438
436
441
441
439
429
419
412
402
388
364
343
330
314
301
283
271
263
258
251
235
229
233
229
234
228
233
239
247
250
249
254
264
265
273
266
273
274
276
269
254
249
244
235
228
215
211
206
202
192
180
179
178
176
175
172
179
185
192
192
194
207
218
231
240
252
269
284
296
301
308
323
337
355
370
395
427
466
510
551
608
683
756
847
935
1040
1151
1268
1386
1502
1629
1766
1897
2039
2168
2314
2454
2593
2724
2848
2978
3105
3226
3347
3463
3591
3719
3852
3981
4110
4251
4393
4535
4679
4822
4977
5129
5277
5409
5532
5652
5750
5834
5895
5942
5978
5994
5986
5944
5875
5781
5647
5479
5267
5024
4747
4440
4100
3721
3323
2906
2457
1994
1499
996
480
-43
-573
-1108
-1628
-2133
-2639
-3129
-3621
-4087
-4541
-4976
-5398
-5805
-6185
-6550
-6903
-7241
-7568
-7866
-8143
-8393
-8622
-8823
-8984
-9115
-9218
-9293
-9343
-9363
-9363
-9347
-9323
-9282
-9218
-9145
-9052
-8947
-8816
-8660
-8484
-8291
-8089
-7871
-7634
-7388
-7128
-6866
-6587
-6302
-6012
-5722
-5442
-5153
-4859
-4576
-4290
-4019
-3745
-3477
-3215
-2965
-2731
-2496
-2263
-2047
-1831
-1635
-1433
-1242
-1057
-885
-723
-559
-400
-250
-105
28
166
295
419
531
636
748
854
955
1049
1136
1225
1305
1378
1435
1488
1545
1591
1634
1665
1693
1720
1744
1761
1769
1777
1791
1797
1808
1809
1820
1829
1839
1845
1841
1846
1856
1861
1872
1875
1889
1902
1919
1930
1933
1945
1963
1969
1981
1978
1985
1987
1987
1979
1965
1958
1952
1941
1932
1917
1912
1906
1902
1890
1879
1880
1880
1880
1880
1880
1889
1899
1910
1913
1920
1938
1950
1964
1971
1978
1987
1992
1992
1982
1971
1965
1950
1939
1914
1900
1883
1867
1846
1817
1796
1781
1763
1751
1731
1724
1717
1714
1707
1694
1695
1703
1705
1716
1717
1729
1740
1750
1753
1752
1758
1761
1760
1757
1746
1743
1735
1724
1705
1684
1672
1659
1646
1631
1617
1611
1604
1597
1583
1573
1575
1573
1577
1577
1580
1589
1599
1607
1608
1613
1626
1630
1640
1635
1641
1642
1642
1634
1617
1605
1596
1581
1570
1550
1541
1531
1523
1510
1491
1485
1485
1479
1481
1475
1482
1489
1498
1501
1502
1514
1526
1535
1545
1549
1561
1568
1573
1568
1560
1559
1554
1547
1535
1522
1514
1505
1494
1473
1456
1449
1439
1433
1422
1416
1415
1416
1415
1409
1408
1418
1420
1432
1433
1448
1462
1478
1488
1491
1499
1510
1515
1523
1519
1525
1526
1527
1519
1502
1494
1490
1480
1475
1463
1461
1459
1460
1457
1452
1458
1466
1472
1479
1483
1498
1511
1525
1532
1540
1558
1573
1587
1597
1606
1621
1632
1640
1637
1634
1638
1636
1635
1628
1623
1622
1620
1616
1605
1599
1603
1599
1606
1602
1612
1623
1638
1649
1656
1671
1693
1710
1735
1748
1777
1802
1827
1845
1854
1872
1891
1902
1915
1918
1927
1933
1937
1934
1928
1930
1934
1934
1935
1933
1941
1947
1954
1954
1954
1966
1977
1989
1998
2010
2028
2047
2063
2071
2083
2101
2114
2128
2134
2140
2148
2154
2155
2144
2138
2139
2130
2128
2114
2112
2109
2107
2101
2090
2087
2090
2087
2092
2085
2094
2100
2109
2110
2107
2114
2125
2131
2139
2140
2147
2150
2151
2142
2128
2120
2109
2093
2075
2051
2035
2016
1995
1967
1939
1922
1903
1888
1868
1855
1848
1842
1836
1822
1812
1811
1807
1806
1800
1797
1795
1792
1784
1763
1746
1735
1712
1694
1660
1632
1601
1568
1527
1479
1436
1399
1354
1317
1268
1236
1202
1171
1134
1092
1061
1032
1000
970
934
907
878
849
813
776
748
719
686
651
611
579
541
502
451
399
354
304
253
196
141
91
41
-12
-72
-127
-174
-222
-267
-317
-360
-402
-441
-483
-535
-577
-610
-652
-686
-730
-765
-801
-839
-882
-933
-977
-1018
-1068
-1112
-1171
-1215
-1265
-1313
-1368
-1425
-1472
-1516
-1562
-1603
-1647
-1680
-1714
-1747
-1785
-1825
-1854
-1882
-1912
-1941
-1972
-1995
-2018
-2041
-2073
-2103
-2124
-2150
-2174
-2204
-2232
-2257
-2284
-2313
-2350
-2384
-2411
-2440
-2465
-2496
-2517
-2535
-2551
-2568
-2593
-2607
-2612
-2622
-2623
-2633
-2632
-2630
-2627
-2627
-2632
-2627
-2614
-2611
-2599
-2601
-2590
-2584
-2578
-2581
-2589
-2590
-2592
-2596
-2600
-2610
-2609
-2610
-2609
-2615
-2622
-2617
-2612
-2607
-2602
-2596
-2581
-2565
-2549
-2541
-2530
-2508
-2491
-2469
-2453
-2432
-2407
-2384
-2364
-2353
-2341
-2324
-2313
-2299
-2296
-2284
-2274
-2263
-2258
-2263
-2260
-2249
-2245
-2232
-2228
-2213
-2198
-2180
-2165
-2156
-2136
-2109
-2091
-2063
-2047
-2017
-1989
-1961
-1939
-1921
-1895
-1870
-1850
-1829
-1816
-1796
-1782
-1769
-1768
-1771
-1766
-1764
-1765
-1768
-1772
-1768
-1766
-1763
-1767
-1768
-1756
-1748
-1736
-1728
-1716
-1698
-1680
-1664
-1654
-1641
-1620
-1603
-1582
-1572
-1551
-1534
-1517
-1508
-1509
-1505
-1497
-1497
-1494
-1502
-1502
-1504
-1504
-1509
-1520
-1521
-1513
-1514
-1504
-1504
-1490
-1476
-1460
-1450
-1442
-1425
-1408
-1393
-1378
-1368
-1350
-1334
-1319
-1313
-1308
-1295
-1284
-1277
-1273
-1272
-1265
-1261
-1258
-1266
-1272
-1267
-1268
-1264
-1266
-1265
-1257
-1247
-1238
-1235
-1227
-1209
-1197
-1178
-1170
-1149
-1129
-1108
-1091
-1082
-1064
-1041
-1024
-1002
-992
-972
-957
-942
-934
-937
-932
-924
-925
-920
-927
-923
-921
-919
-923
-928
-925
-920
-918
-912
-911
-898
-887
-874
-868
-863
-846
-830
-813
-798
-783
-761
-741
-724
-717
-708
-692
-681
-669
-664
-659
-650
-643
-638
-641
-639
-628
-625
-613
-614
-600
-588
-574
-564
-560
-549
-532
-519
-499
-488
-463
-439
-412
-389
-374
-348
-319
-298
-274
-261
-240
-225
-211
-206
-206
-200
-196
-197
-198
-206
-205
-208
-210
-219
-228
-225
-223
-220
-217
-212
-199
-185
-170
-165
-154
-134
-117
-99
-87
-73
-57
-43
-33
-33
-32
-24
-28
-26
-40
-44
-50
-56
-68
-86
-97
-101
-109
-110
-120
-115
-112
-107
-106
-113
-107
-98
-93
-83
-80
-67
-56
-45
-41
-41
-34
-28
-27
-28
-36
-36
-41
-48
-66
-85
-93
-104
-114
-126
-136
-139
-140
-140
-149
-152
-146
-142
-134
-130
-123
-111
-98
-87
-84
-76
-59
-52
-39
-41
-34
-29
-25
-28
-39
-45
-46
-56
-60
-77
-79
-85
-88
-96
-112
-115
-113
-114
-110
-111
-103
-94
-83
-79
-77
-65
-51
-40
-28
-20
-3
11
23
24
24
33
35
37
31
26
25
22
15
0
-12
-15
-22
-25
-32
-34
-33
-30
-30
-38
-38
-29
-29
-20
-23
-14
-6
5
12
13
20
31
34
43
36
44
45
46
38
23
16
10
0
-7
-21
-25
-31
-37
-50
-65
-69
-72
-77
-82
-89
-87
-86
-85
-92
-96
-89
-85
-79
-79
-76
-69
-64
-62
-70
-77
-78
-83
-87
-99
-108
-115
-123
-133
-154
-167
-171
-183
-185
-199
-202
-204
-204
-207
-217
-218
-211
-213
-204
-209
-195
-185
-173
-168
-168
-158
-148
-141
-134
-134
-127
-124
-122
-130
-142
-144
-147
-152
-157
-166
-166
-166
-166
-174
-182
-178
-178
-174
-176
-173
-164
-154
-145
-141
-134
-120
-109
-95
-90
-79
-69
-60
-56
-65
-67
-63
-70
-71
-85
-90
-96
-100
-110
-125
-131
-131
-138
-135
-144
-136
-131
-122
-119
-118
-107
-93
-81
-66
-56
-36
-20
-4
2
4
14
20
22
20
14
14
10
4
-10
-23
-26
-32
-36
-44
-47
-45
-42
-40
-43
-42
-33
-27
-16
-13
0
13
29
42
44
53
69
76
89
90
97
101
105
102
91
87
88
79
79
66
69
69
70
66
59
62
67
69
75
74
85
92
101
101
101
110
119
126
132
135
143
149
151
143
135
137
132
131
123
118
118
118
116
110
105
109
109
114
111
120
129
140
146
143
147
158
164
177
181
194
206
219
225
222
227
237
236
240
231
232
229
225
212
197
190
184
177
171
160
160
158
156
146
135
134
132
129
124
118
122
125
129
124
122
130
132
136
133
131
132
132
128
116
105
101
90
84
67
61
55
50
41
24
16
15
8
8
-1
1
3
8
8
2
7
19
24
36
39
52
63
73
75
74
78
82
81
79
70
70
66
60
46
31
26
20
13
4
-6
-8
-11
-15
-28
-37
-37
-42
-43
-50
-55
-54
-54
-57
-66
-72
-71
-78
-80
-95
-99
-106
-114
-127
-148
-162
-170
-181
-184
-194
-187
-178
-160
-140
-120
-81
-27
28
99
170
261
361
469
577
690
816
947
1079
1214
1346
1488
1626
1763
1889
2011
2140
2263
2384
2498
2610
2729
2848
2970
3088
3214
3354
3495
3645
3793
3948
4111
4278
4447
4610
4775
4944
5095
5241
5358
5469
5561
5637
5690
5719
5734
5729
5691
5625
5511
5372
5191
4973
4709
4404
4080
3734
3356
2960
2532
2096
1639
1167
674
170
-332
-833
-1332
-1823
-2310
-2777
-3237
-3684
-4127
-4553
-4952
-5335
-5700
-6055
-6398
-6728
-7052
-7368
-7679
-7967
-8222
-8456
-8659
-8837
-8985
-9099
-9183
-9242
-9282
-9295
-9277
-9249
-9196
-9141
-9059
-8962
-8848
-8718
-8573
-8401
-8206
-7999
-7771
-7542
-7285
-7024
-6751
-6479
-6209
-5925
-5636
-5352
-5065
-4787
-4503
-4226
-3950
-3684
-3424
-3159
-2900
-2649
-2403
-2168
-1931
-1702
-1481
-1275
-1077
-875
-683
-497
-323
-153
15
175
327
462
593
723
840
952
1050
1141
1228
1307
1375
1427
1478
1532
1573
1618
1646
1683
1716
1750
1776
1795
1819
1847
1867
1893
1906
1934
1958
1983
2002
2015
2039
2065
2088
2112
2130
2155
2176
2195
2206
2213
2227
2239
2246
2251
2250
2257
2260
2261
2253
2244
2245
2242
2240
2232
2226
2224
2222
2218
2205
2197
2196
2194
2194
2190
2191
2194
2197
2196
2183
2177
2177
2165
2160
2142
2132
2122
2112
2096
2074
2058
2047
2030
2021
1998
1992
1983
1976
1963
1944
1937
1932
1925
1921
1912
1913
1914
1916
1911
1905
1909
1911
1910
1909
1902
1902
1898
1892
1876
1859
1850
1836
1823
1805
1790
1780
1771
1760
1743
1729
1725
1720
1718
1711
1711
1714
1718
1720
1713
1716
1727
1730
1740
1738
1744
1748
1751
1747
1734
1726
1721
1706
1696
1670
1657
1639
1622
1598
1570
1551
1533
1514
1498
1477
1467
1456
1447
1431
1414
1407
1402
1396
1392
1386
1389
1392
1394
1388
1381
1384
1381
1380
1371
1364
1360
1355
1346
1328
1311
1302
1290
1281
1266
1258
1252
1249
1243
1228
1223
1227
1224
1230
1227
1235
1243
1254
1261
1264
1276
1295
1305
1322
1325
1342
1353
1363
1364
1360
1363
1364
1360
1356
1346
1346
1344
1343
1334
1324
1325
1326
1326
1327
1327
1336
1344
1353
1354
1359
1375
1389
1408
1421
1439
1461
1483
1502
1513
1525
1543
1554
1567
1569
1578
1585
1591
1593
1585
1585
1591
1591
1597
1594
1601
1608
1617
1621
1619
1628
1644
1652
1669
1675
1696
1714
1735
1748
1759
1777
1796
1811
1826
1833
1849
1860
1869
1868
1863
1867
1867
1866
1864
1859
1862
1864
1865
1858
1854
1862
1867
1875
1879
1886
1900
1915
1929
1939
1952
1975
1994
2017
2029
2052
2071
2090
2102
2102
2108
2117
2118
2122
2114
2115
2113
2114
2109
2098
2098
2105
2104
2114
2112
2124
2135
2146
2150
2152
2162
2173
2181
2192
2195
2208
2217
2224
2220
2213
2213
2209
2202
2189
2172
2161
2146
2129
2101
2076
2063
2046
2033
2017
2004
1999
1995
1992
1983
1978
1983
1983
1990
1986
1994
2000
2008
2010
2004
2004
2009
2007
2008
1995
1991
1983
1973
1954
1925
1904
1887
1858
1835
1800
1776
1750
1724
1692
1657
1632
1609
1583
1560
1532
1514
1494
1474
1446
1416
1395
1373
1349
1323
1295
1272
1246
1216
1173
1132
1096
1053
1010
958
907
858
806
751
689
630
581
523
473
412
364
316
270
219
162
112
68
19
-23
-75
-114
-154
-193
-237
-289
-332
-371
-420
-464
-520
-568
-619
-670
-730
-792
-846
-901
-958
-1013
-1072
-1120
-1169
-1215
-1268
-1320
-1360
-1400
-1439
-1480
-1519
-1551
-1584
-1617
-1659
-1697
-1725
-1759
-1790
-1828
-1865
-1899
-1936
-1976
-2026
-2073
-2112
-2161
-2202
-2258
-2301
-2343
-2383
-2426
-2474
-2512
-2543
-2577
-2603
-2637
-2655
-2675
-2690
-2711
-2737
-2752
-2761
-2774
-2781
-2795
-2800
-2806
-2811
-2824
-2840
-2849
-2858
-2872
-2886
-2906
-2917
-2931
-2945
-2967
-2988
-2997
-3007
-3013
-3021
-3024
-3018
-3011
-3004
-3005
-3000
-2985
-2973
-2958
-2946
-2932
-2913
-2892
-2872
-2861
-2844
-2817
-2801
-2778
-2768
-2747
-2730
-2713
-2702
-2698
-2689
-2674
-2667
-2654
-2652
-2633
-2618
-2599
-2585
-2577
-2557
-2531
-2509
-2480
-2457
-2423
-2389
-2354
-2325
-2298
-2262
-2226
-2192
-2158
-2130
-2094
-2063
-2034
-2016
-2000
-1977
-1959
-1942
-1932
-1921
-1906
-1894
-1884
-1882
-1877
-1863
-1852
-1838
-1829
-1815
-1798
-1779
-1762
-1754
-1738
-1713
-1696
-1670
-1656
-1631
-1607
-1582
-1562
-1549
-1530
-1508
-1495
-1476
-1472
-1454
-1443
-1433
-1431
-1437
-1433
-1426
-1423
-1417
-1416
-1405
-1396
-1386
-1382
-1380
-1367
-1354
-1343
-1330
-1320
-1299
-1281
-1262
-1250
-1238
-1216
-1197
-1176
-1162
-1146
-1127
-1111
-1098
-1095
-1091
-1082
-1076
-1071
-1073
-1071
-1067
-1062
-1060
-1067
-1067
-1057
-1056
-1046
-1047
-1037
-1027
-1015
-1006
-1003
-991
-972
-961
-940
-933
-909
-890
-869
-858
-853
-841
-830
-824
-819
-823
-820
-822
-826
-840
-857
-865
-874
-884
-894
-905
-906
-907
-907
-914
-918
-910
-906
-898
-894
-886
-873
-858
-845
-839
-829
-812
-798
-783
-775
-762
-749
-738
-732
-739
-738
-731
-734
-730
-738
-737
-735
-732
-733
-739
-735
-725
-722
-710
-711
-694
-681
-665
-656
-650
-634
-616
-600
-582
-570
-549
-532
-517
-511
-510
-501
-495
-493
-494
-498
-497
-499
-502
-514
-524
-522
-525
-524
-529
-528
-522
-514
-508
-507
-502
-488
-477
-462
-454
-437
-419
-399
-384
-381
-371
-355
-350
-340
-343
-339
-337
-337
-342
-356
-363
-363
-371
-371
-383
-379
-378
-374
-375
-379
-373
-365
-359
-350
-347
-333
-322
-311
-307
-305
-293
-283
-275
-271
-271
-265
-263
-264
-277
-289
-293
-304
-311
-325
-335
-339
-343
-348
-359
-366
-365
-367
-364
-369
-363
-357
-349
-344
-349
-345
-334
-329
-318
-317
-306
-298
-289
-286
-292
-290
-284
-288
-285
-296
-294
-296
-297
-306
-316
-318
-318
-320
-319
-322
-314
-306
-297
-295
-294
-281
-269
-258
