4654
5182
5703
6195
6659
7106
7538
7957
8354
8719
9082
9429
9788
10102
10404
10678
10931
11160
11345
11484
11596
11669
11723
11716
11683
11615
11529
11426
11290
11122
10953
10764
10573
10339
10091
9823
9547
9261
8953
8634
8317
8000
7686
7348
7018
6687
6369
6054
5727
5404
5088
4787
4486
4178
3880
3589
3316
3044
2764
2498
2238
2000
1761
1522
1292
1074
871
671
464
274
87
-67
-243
-401
-553
-688
-805
-921
-1038
-1137
-1230
-1295
-1381
-1449
-1517
-1570
-1609
-1657
-1712
-1749
-1786
-1805
-1843
-1874
-1906
-1927
-1946
-1975
-2008
-2033
-2054
-2070
-2108
-2137
-2169
-2188
-2206
-2238
-2266
-2289
-2298
-2311
-2333
-2349
-2362
-2361
-2363
-2380
-2392
-2404
-2404
-2411
-2426
-2439
-2450
-2451
-2458
-2482
-2493
-2509
-2501
-2524
-2540
-2560
-2573
-2580
-2594
-2617
-2631
-2648
-2642
-2668
-2680
-2696
-2698
-2690
-2693
-2702
-2698
-2691
-2672
-2672
-2664
-2658
-2642
-2623
-2616
-2612
-2601
-2584
-2562
-2560
-2550
-2542
-2523
-2506
-2505
-2503
-2500
-2487
-2483
-2489
-2492
-2492
-2480
-2472
-2475
-2472
-2468
-2449
-2436
-2429
-2419
-2404
-2380
-2361
-2361
-2346
-2337
-2303
-2299
-2288
-2280
-2265
-2244
-2232
-2231
-2221
-2216
-2190
-2201
-2201
-2209
-2207
-2200
-2206
-2221
-2226
-2229
-2221
-2231
-2232
-2232
-2221
-2205
-2199
-2195
-2182
-2163
-2141
-2137
-2125
-2113
-2090
-2069
-2063
-2056
-2046
-2023
-2012
-2011
-2008
-2005
-1994
-1990
-1999
-2007
-2015
-2012
-2018
-2028
-2038
-2041
-2033
-2030
-2042
-2037
-2036
-2009
-2005
-1995
-1986
-1970
-1947
-1932
-1928
-1913
-1904
-1872
-1877
-1868
-1864
-1850
-1831
-1827
-1831
-1829
-1829
-1824
-1840
-1850
-1864
-1867
-1867
-1879
-1892
-1896
-1892
-1883
-1890
-1888
-1883
-1863
-1843
-1837
-1826
-1813
-1785
-1769
-1762
-1754
-1744
-1726
-1712
-1711
-1707
-1703
-1688
-1688
-1693
-1702
-1709
-1707
-1716
-1742
-1753
-1769
-1761
-1777
-1787
-1798
-1799
-1792
-1793
-1805
-1800
-1799
-1772
-1780
-1773
-1771
-1759
-1744
-1742
-1745
-1743
-1740
-1731
-1742
-1748
-1757
-1759
-1759
-1776
-1797
-1813
-1822
-1830
-1855
-1870
-1883
-1883
-1881
-1891
-1893
-1891
-1870
-1859
-1851
-1838
-1821
-1794
-1769
-1754
-1736
-1717
-1684
-1669
-1654
-1643
-1626
-1599
-1583
-1585
-1574
-1569
-1546
-1547
-1547
-1552
-1552
-1548
-1554
-1573
-1576
-1584
-1566
-1581
-1583
-1587
-1578
-1565
-1560
-1558
-1550
-1538
-1519
-1520
-1513
-1510
-1497
-1485
-1489
-1496
-1498
-1493
-1491
-1506
-1518
-1531
-1534
-1541
-1566
-1586
-1606
-1610
-1624
-1642
-1656
-1665
-1661
-1657
-1661
-1657
-1652
-1626
-1619
-1608
-1598
-1581
-1553
-1534
-1529
-1514
-1504
-1478
-1474
-1468
-1466
-1458
-1444
-1442
-1455
-1453
-1458
-1443
-1461
-1469
-1481
-1482
-1480
-1487
-1496
-1496
-1489
-1472
-1472
-1462
-1450
-1425
-1396
-1381
-1366
-1343
-1312
-1282
-1267
-1247
-1228
-1199
-1174
-1167
-1154
-1143
-1118
-1105
-1101
-1094
-1085
-1069
-1055
-1053
-1044
-1036
-1004
-994
-976
-956
-924
-877
-837
-805
-758
-713
-649
-605
-557
-511
-455
-392
-341
-305
-252
-205
-140
-106
-65
-28
17
63
97
126
161
199
245
269
303
335
381
431
469
510
559
620
681
731
786
842
909
972
1017
1068
1117
1177
1225
1261
1297
1334
1375
1410
1428
1452
1469
1507
1513
1525
1532
1546
1570
1586
1592
1609
1625
1661
1676
1701
1724
1757
1801
1834
1854
1891
1921
1968
1987
2011
2029
2053
2075
2084
2086
2093
2101
2114
2103
2099
2090
2089
2087
2069
2051
2037
2036
2032
2017
2009
2006
2016
2025
2022
2027
2034
2059
2076
2085
2096
2109
2129
2143
2140
2144
2141
2159
2145
2138
2125
2119
2119
2109
2086
2070
2050
2047
2017
1994
1969
1955
1952
1937
1914
1908
1902
1915
1907
1908
1910
1923
1937
1939
1937
1942
1948
1959
1946
1939
1928
1926
1921
1900
1878
1860
1851
1835
1806
1781
1756
1742
1725
1693
1670
1651
1648
1640
1628
1622
1622
1634
1645
1643
1656
1664
1697
1699
1707
1712
1722
1736
1739
1728
1723
1711
1718
1693
1677
1655
1641
1633
1611
1577
1556
1534
1526
1500
1484
1470
1467
1470
1464
1458
1461
1470
1487
1486
1493
1500
1518
1535
1536
1537
1538
1549
1550
1537
1527
1517
1518
1513
1494
1480
1466
1464
1453
1435
1418
1405
1403
1397
1376
1372
1365
1386
1381
1384
1387
1398
1416
1427
1426
1434
1437
1459
1447
1444
1434
1432
1435
1422
1400
1387
1374
1370
1348
1331
1313
1305
1298
1279
1257
1244
1237
1236
1217
1208
1200
1207
1215
1210
1207
1209
1224
1228
1221
1216
1212
1217
1217
1203
1191
1178
1176
1163
1143
1123
1106
1098
1082
1049
1030
1005
1004
976
955
932
919
913
902
882
874
865
879
860
856
847
849
855
847
832
825
818
818
798
783
766
757
749
728
703
685
672
662
630
605
579
563
547
515
488
465
459
444
425
410
401
403
403
393
387
381
386
378
366
352
341
340
330
302
289
269
272
248
227
203
185
172
151
117
95
69
67
31
9
-15
-26
-29
-41
-56
-61
-62
-51
-57
-55
-55
-46
-35
-38
-44
-44
-39
-33
-45
-52
-61
-60
-62
-82
-99
-115
-118
-133
-158
-179
-198
-206
-216
-235
-250
-262
-256
-262
-266
-269
-264
-245
-234
-239
-228
-224
-200
-199
-196
-196
-192
-183
-184
-199
-200
-208
-195
-219
-231
-250
-259
-267
-287
-310
-326
-337
-339
-358
-368
-378
-374
-366
-369
-371
-362
-343
-323
-319
-309
-299
-279
-261
-262
-257
-252
-232
-226
-229
-230
-229
-221
-217
-227
-235
-246
-240
-255
-266
-278
-281
-271
-269
-278
-271
-266
-239
-232
-218
-206
-186
-159
-143
-140
-123
-112
-80
-84
-78
-78
-70
-62
-66
-76
-82
-86
-83
-103
-116
-132
-137
-139
-154
-167
-171
-162
-150
-151
-142
-129
-103
-76
-64
-45
-25
10
32
46
60
76
96
111
112
114
113
130
121
114
103
98
100
91
67
55
38
41
25
17
8
10
23
28
22
34
43
76
79
93
103
123
143
153
156
163
170
181
168
161
150
150
149
132
113
99
92
84
61
44
29
28
26
11
6
5
24
34
38
48
62
85
104
110
121
128
155
154
157
154
156
165
161
143
132
117
119
98
83
63
52
48
33
6
-3
-14
-2
-14
-14
-12
2
20
30
39
56
77
106
112
126
138
158
177
177
176
176
183
185
171
160
151
152
149
129
115
100
101
91
75
64
58
63
66
59
63
66
93
89
90
86
82
81
62
24
-16
-69
-116
-197
-282
-379
-476
-571
-684
-813
-929
-1050
-1156
-1286
-1407
-1530
-1643
-1753
-1872
-1992
-2102
-2207
-2301
-2414
-2514
-2615
-2705
-2797
-2906
-3020
-3133
-3241
-3358
-3492
-3627
-3764
-3894
-4032
-4187
-4332
-4470
-4586
-4696
-4798
-4881
-4944
-4982
-5005
-5023
-5008
-4971
-4876
-4776
-4627
-4436
-4195
-3902
-3575
-3218
-2815
-2378
-1885
-1385
-846
-288
298
902
1500
2085
2677
3256
3832
4367
4886
5382
5865
6324
6749
7145
7524
7884
8228
8535
8834
9116
9393
9648
9861
10047
10206
10346
10451
10514
10551
10560
10553
10515
10438
10345
10231
10110
9964
9794
9610
9413
9209
8985
8731
8477
8207
7954
7663
7370
7067
6765
6464
6153
5831
5518
5203
4910
4590
4286
3980
3690
3413
3127
2839
2571
2308
2064
1808
1565
1327
1105
892
674
462
265
80
-90
-273
-441
-602
-747
-885
-1034
-1174
-1305
-1417
-1531
-1647
-1752
-1847
-1923
-1995
-2072
-2137
-2196
-2236
-2277
-2318
-2353
-2380
-2394
-2410
-2440
-2454
-2473
-2466
-2487
-2500
-2515
-2521
-2520
-2527
-2543
-2550
-2562
-2554
-2579
-2593
-2612
-2621
-2623
-2637
-2658
-2666
-2672
-2665
-2675
-2676
-2675
-2663
-2645
-2637
-2631
-2615
-2592
-2563
-2552
-2534
-2517
-2490
-2464
-2453
-2441
-2426
-2398
-2381
-2373
-2363
-2352
-2333
-2321
-2324
-2325
-2326
-2314
-2312
-2313
-2312
-2305
-2285
-2271
-2273
-2258
-2247
-2211
-2201
-2184
-2170
-2147
-2119
-2097
-2087
-2066
-2051
-2014
-2014
-2000
-1993
-1977
-1957
-1951
-1953
-1949
-1947
-1938
-1951
-1958
-1967
-1966
-1961
-1968
-1976
-1975
-1964
-1948
-1949
-1940
-1930
-1906
-1883
-1873
-1859
-1842
-1811
-1791
-1782
-1771
-1758
-1736
-1720
-1717
-1712
-1707
-1690
-1687
-1689
-1694
-1696
-1690
-1694
-1716
-1722
-1733
-1721
-1731
-1736
-1740
-1735
-1723
-1717
-1722
-1710
-1704
-1673
-1677
-1666
-1659
-1641
-1619
-1610
-1607
-1598
-1589
-1573
-1578
-1577
-1579
-1572
-1564
-1573
-1586
-1593
-1595
-1596
-1615
-1625
-1635
-1631
-1627
-1635
-1637
-1635
-1615
-1605
-1600
-1592
-1579
-1558
-1539
-1531
-1521
-1511
-1487
-1480
-1473
-1471
-1464
-1448
-1444
-1457
-1458
-1465
-1454
-1467
-1478
-1491
-1498
-1499
-1508
-1530
-1534
-1542
-1522
-1534
-1531
-1528
-1512
-1490
-1479
-1471
-1456
-1440
-1415
-1411
-1400
-1393
-1377
-1361
-1361
-1364
-1362
-1354
-1348
-1361
-1369
-1379
-1380
-1385
-1407
-1425
-1442
-1443
-1455
-1472
-1486
-1496
-1494
-1492
-1499
-1501
-1499
-1479
-1480
-1478
-1479
-1475
-1461
-1458
-1471
-1473
-1480
-1470
-1483
-1493
-1507
-1516
-1519
-1534
-1565
-1582
-1606
-1608
-1643
-1666
-1691
-1704
-1712
-1730
-1748
-1757
-1759
-1751
-1762
-1761
-1761
-1749
-1735
-1736
-1739
-1737
-1728
-1721
-1732
-1738
-1745
-1743
-1745
-1765
-1782
-1801
-1806
-1825
-1855
-1884
-1911
-1931
-1954
-1987
-2013
-2038
-2041
-2066
-2083
-2100
-2106
-2098
-2096
-2103
-2097
-2093
-2070
-2069
-2063
-2061
-2053
-2039
-2037
-2049
-2047
-2050
-2034
-2048
-2054
-2064
-2065
-2066
-2079
-2095
-2105
-2112
-2109
-2125
-2132
-2138
-2130
-2119
-2119
-2115
-2103
-2078
-2052
-2038
-2017
-1995
-1961
-1931
-1916
-1897
-1880
-1850
-1834
-1827
-1821
-1814
-1800
-1791
-1796
-1795
-1797
-1779
-1790
-1794
-1801
-1800
-1787
-1780
-1781
-1768
-1754
-1719
-1702
-1676
-1651
-1613
-1565
-1527
-1501
-1458
-1419
-1362
-1331
-1295
-1264
-1224
-1184
-1155
-1132
-1101
-1068
-1027
-1009
-982
-957
-922
-885
-861
-834
-799
-750
-700
-658
-607
-550
-478
-407
-350
-283
-214
-128
-52
16
85
155
232
302
354
412
463
536
575
619
659
705
758
800
829
865
896
945
967
999
1027
1068
1120
1161
1192
1241
1289
1355
1399
1451
1501
1559
1618
1664
1704
1750
1796
1845
1868
1897
1920
1951
1980
1991
2002
2016
2040
2058
2062
2070
2080
2102
2120
2125
2138
2152
2182
2206
2225
2248
2275
2313
2346
2365
2395
2418
2463
2475
2492
2503
2519
2540
2548
2544
2544
2539
2551
2533
2523
2507
2500
2500
2486
2462
2452
2441
2445
2432
2426
2420
2427
2438
2439
2438
2446
2459
2478
2477
2483
2487
2499
2510
2503
2495
2489
2492
2487
2468
2451
2435
2428
2415
2386
2362
2338
2326
2305
2278
2251
2229
2217
2202
2173
2160
2144
2156
2142
2136
2130
2133
2144
2147
2138
2138
2133
2147
2127
2116
2099
2089
2085
2064
2033
2011
1988
1974
1942
1914
1884
1863
1844
1814
1782
1760
1745
1737
1711
1696
1684
1686
1690
1682
1676
1676
1688
1690
1681
1674
1668
1670
1666
1649
1633
1617
1611
1594
1571
1546
1524
1510
1487
1446
1419
1386
1378
1342
1314
1285
1265
1252
1233
1206
1192
1176
1186
1164
1158
1148
1148
1154
1147
1132
1126
1118
1119
1099
1083
1064
1054
1046
1023
997
977
962
949
918
894
870
858
847
822
803
788
789
781
766
757
754
762
769
766
766
767
780
780
776
769
766
770
764
740
729
712
716
692
673
650
632
618
595
559
536
508
506
471
452
431
423
423
413
401
398
398
409
403
405
405
415
427
424
417
416
420
424
408
396
384
381
377
356
337
317
311
293
267
244
226
220
213
198
188
182
192
189
187
184
190
207
215
208
215
217
240
239
240
238
241
248
245
227
222
209
219
192
177
155
143
134
112
86
67
54
50
31
21
12
17
26
25
23
31
46
63
64
72
79
98
113
111
113
113
128
128
120
114
109
113
111
97
84
71
73
57
43
30
25
35
38
28
35
39
66
72
85
95
112
136
150
150
165
172
202
196
199
196
202
209
203
192
186
181
182
162
149
134
129
128
114
101
98
106
118
116
124
135
159
184
193
209
225
257
276
287
298
310
328
340
339
338
335
348
337
327
314
305
305
294
269
257
241
246
231
223
214
215
227
232
225
237
245
278
279
290
297
313
332
338
338
342
348
357
343
334
321
316
311
289
265
245
234
222
195
175
158
155
151
134
127
123
138
145
147
154
165
183
198
200
205
208
229
222
218
210
207
212
206
185
173
155
154
131
112
91
78
73
58
30
20
8
19
4
1
-1
9
24
30
35
48
64
86
86
93
96
107
117
110
100
94
96
93
74
58
42
37
28
2
-18
-38
-40
-50
-65
-75
-78
-71
-63
-66
-60
-54
-25
-24
-14
-8
4
24
32
27
28
23
34
20
12
-2
-8
-8
-20
-45
-53
-67
-62
-82
-93
-104
-103
-99
-103
-109
-105
-96
-77
-79
-70
-61
-41
-20
-14
-9
0
18
30
28
28
28
38
43
32
26
19
26
24
14
4
-4
-4
-9
-28
-36
-48
-34
-47
-51
-56
-51
-35
-26
-26
-15
-5
25
28
39
45
60
82
89
83
89
90
104
94
90
84
85
88
78
64
57
54
56
37
27
19
24
32
27
25
30
47
59
61
69
80
103
123
127
136
144
164
173
172
172
173
180
181
166
164
155
171
155
146
134
129
131
125
111
108
103
120
109
111
110
120
140
149
149
164
178
205
212
225
235
253
272
276
276
282
291
304
296
295
291
298
303
292
280
272
275
270
256
247
240
247
252
245
246
249
266
278
283
289
299
316
327
320
326
324
346
336
331
321
317
317
308
286
273
255
255
223
201
174
156
147
124
95
79
65
65
48
41
34
39
49
47
42
45
53
66
60
60
59
68
74
62
51
42
43
34
14
-3
-20
-27
-40
-67
-92
-115
-125
-144
-168
-189
-204
-207
-215
-239
-247
-262
-255
-279
-301
-332
-362
-396
-447
-518
-588
-673
-745
-861
-972
-1093
-1208
-1321
-1449
-1587
-1717
-1846
-1965
-2102
-2233
-2361
-2477
-2588
-2710
-2831
-2941
-3039
-3130
-3240
-3344
-3451
-3551
-3657
-3781
-3905
-4029
-4139
-4260
-4390
-4519
-4646
-4758
-4869
-4982
-5079
-5159
-5207
-5250
-5280
-5293
-5283
-5241
-5180
-5106
-4979
-4819
-4592
-4346
-4051
-3714
-3329
-2902
-2446
-1968
-1443
-894
-298
281
887
1496
2115
2732
3324
3893
4447
4978
5495
5971
6431
6868
7290
7691
8054
8395
8725
9049
9364
9648
9921
10174
10412
10621
10785
10923
11033
11126
11177
11189
11175
11136
11083
11003
10892
10765
10620
10472
10290
10088
9864
9626
9382
9111
8810
8510
8194
7888
7549
7208
6859
6514
6175
5828
5470
5131
4791
4480
4142
3825
3511
3217
2935
2651
2370
2103
1847
1607
1355
1117
884
668
463
251
44
-148
-325
-496
-677
-847
-1010
-1156
-1299
-1451
-1591
-1721
-1828
-1938
-2048
-2146
-2233
-2303
-2369
-2437
-2495
-2544
-2571
-2611
-2645
-2677
-2698
-2705
-2720
-2747
-2760
-2776
-2771
-2786
-2797
-2810
-2816
-2816
-2828
-2855
-2867
-2887
-2883
-2913
-2931
-2950
-2957
-2958
-2967
-2977
-2978
-2974
-2959
-2962
-2953
-2944
-2921
-2896
-2884
-2872
-2853
-2826
-2799
-2788
-2771
-2754
-2725
-2699
-2690
-2677
-2664
-2638
-2627
-2625
-2623
-2620
-2609
-2601
-2603
-2599
-2593
-2566
-2560
-2546
-2533
-2509
-2472
-2442
-2422
-2389
-2358
-2308
-2279
-2247
-2219
-2185
-2145
-2119
-2110
-2087
-2071
-2036
-2034
-2024
-2019
-2007
-1996
-1998
-2007
-2010
-2011
-2004
-2017
-2021
-2025
-2017
-2004
-2003
-2001
-1990
-1967
-1943
-1933
-1916
-1898
-1867
-1839
-1826
-1809
-1792
-1760
-1743
-1735
-1727
-1718
-1706
-1698
-1706
-1710
-1718
-1707
-1725
-1738
-1755
-1763
-1759
-1763
-1777
-1778
-1779
-1758
-1757
-1748
-1740
-1721
-1694
-1679
-1677
-1658
-1645
-1613
-1610
-1599
-1592
-1577
-1562
-1560
-1563
-1561
-1559
-1551
-1566
-1573
-1584
-1585
-1586
-1602
-1619
-1629
-1629
-1630
-1643
-1647
-1647
-1632
-1619
-1619
-1610
-1599
-1574
-1559
-1551
-1543
-1532
-1514
-1501
-1504
-1500
-1503
-1483
-1496
-1505
-1519
-1528
-1530
-1544
-1570
-1589
-1612
-1617
-1646
-1668
-1693
-1707
-1712
-1726
-1749
-1753
-1758
-1743
-1748
-1743
-1739
-1725
-1709
-1705
-1705
-1698
-1689
-1674
-1682
-1684
-1689
-1686
-1684
-1700
-1717
-1730
-1735
-1746
-1770
-1791
-1811
-1819
-1831
-1856
-1873
-1888
-1887
-1891
-1899
-1903
-1901
-1887
-1875
-1877
-1868
-1865
-1838
-1843
-1841
-1843
-1840
-1831
-1833
-1847
-1856
-1870
-1868
-1896
-1917
-1945
-1964
-1975
-2001
-2036
-2056
-2077
-2081
-2105
-2120
-2134
-2137
-2135
-2141
-2149
-2146
-2136
-2118
-2119
-2112
-2107
-2092
-2078
-2081
-2085
-2087
-2079
-2080
-2095
-2108
-2121
-2125
-2136
-2163
-2187
-2212
-2224
-2244
-2271
-2295
-2314
-2320
-2329
-2351
-2355
-2362
-2339
-2344
-2338
-2332
-2316
-2291
-2274
-2267
-2252
-2241
-2211
-2215
-2210
-2211
-2205
-2193
-2195
-2208
-2211
-2216
-2210
-2226
-2237
-2250
-2253
-2254
-2267
-2281
-2285
-2280
-2267
-2270
-2261
-2250
-2225
-2198
-2183
-2164
-2141
-2106
-2080
-2064
-2045
-2025
-1996
-1973
-1964
-1953
-1943
-1920
-1906
-1899
-1891
-1879
-1858
-1844
-1847
-1834
-1826
-1791
-1783
-1765
-1745
-1714
-1672
-1635
-1604
-1561
-1519
-1453
-1417
-1367
-1321
-1265
-1202
-1154
-1115
-1068
-1022
-968
-934
-896
-861
-818
-773
-740
-710
-672
-631
-586
-561
-529
-496
-451
-404
-368
-326
-279
-215
-158
-107
-51
9
81
151
208
267
326
396
455
508
558
610
669
717
747
790
825
882
912
946
977
1015
1057
1092
1114
1148
1179
1234
1256
1294
1330
1379
1435
1480
1519
1567
1618
1677
1718
1764
1808
1861
1914
1952
1984
2020
2061
2101
2121
2145
2166
2196
2221
2230
2240
2251
2275
2286
2288
2293
2302
2322
2340
2349
2363
2380
2413
2433
2453
2473
2498
2534
2560
2569
2591
2607
2642
2650
2661
2666
2676
2690
2692
2679
2678
2669
2681
2655
2640
2618
2606
2597
2575
2549
2530
2515
2510
2488
2477
2467
2470
2478
2475
2472
2476
2487
2499
2492
2491
2489
2496
2501
2488
2479
2469
2473
2463
2443
2424
2406
2395
2378
2349
2322
2294
2281
2252
2225
2197
2178
2172
2160
2135
2128
2118
2131
2124
2122
2117
2118
2124
2120
2101
2095
2082
2091
2061
2043
2018
2003
1989
1962
1929
1900
1872
1852
1810
1777
1744
1722
1705
1677
1650
1634
1628
1626
1611
1606
1604
1617
1629
1625
1626
1627
1642
1643
1636
1628
1620
1619
1611
1591
1571
1549
1542
1513
1487
1456
1433
1419
1395
1358
1334
1307
1301
1277
1259
1240
1232
1235
1229
1211
1212
1208
1228
1213
1209
1200
1199
1198
1184
1164
1149
1136
1129
1099
1076
1051
1036
1023
996
967
945
932
919
892
873
859
858
857
843
839
838
854
861
862
868
877
893
905
903
905
903
916
901
887
868
854
847
826
789
759
719
691
634
574
501
426
345
241
112
-11
-147
-271
-433
-592
-760
-924
-1089
-1267
-1449
-1623
-1790
-1949
-2128
-2296
-2464
-2619
-2773
-2944
-3117
-3285
-3445
-3607
-3786
-3960
-4133
-4296
-4461
-4642
-4812
-4969
-5093
-5204
-5299
-5367
-5408
-5418
-5406
-5380
-5315
-5220
-5067
-4904
-4693
-4443
-4141
-3783
-3388
-2958
-2473
-1947
-1359
-752
-100
580
1291
2026
2760
3490
4243
4997
5769
6513
7257
7983
8695
9385
10038
10658
11253
11818
12354
12835
13293
13724
14144
14545
14913
15263
15600
15926
16225
16484
16718
16921
17097
17229
17302
17335
17320
17268
17155
16984
16766
16506
16210
15870
15478
15062
14609
14151
13635
13104
12554
12000
11447
10881
10302
9732
9162
8613
8046
7495
6947
6418
5906
5388
4869
4375
3888
3429
2961
2512
2077
1667
1273
884
507
154
-179
-490
-804
-1093
-1364
-1607
-1832
-2054
-2259
-2443
-2603
-2755
-2906
-3042
-3168
-3274
-3378
-3490
-3591
-3686
-3762
-3842
-3926
-4003
-4072
-4128
-4184
-4250
-4300
-4350
-4370
-4417
-4454
-4491
-4516
-4531
-4550
-4576
-4591
-4607
-4601
-4620
-4627
-4637
-4637
-4627
-4631
-4646
-4650
-4656
-4649
-4664
-4674
-4687
-4691
-4692
-4703
-4717
-4721
-4719
-4710
-4719
-4717
-4715
-4700
-4683
-4680
-4673
-4661
-4637
-4618
-4608
-4593
-4574
-4542
-4512
-4494
-4471
-4446
-4408
-4379
-4358
-4337
-4314
-4283
-4258
-4250
-4229
-4213
-4171
-4159
-4138
-4119
-4091
-4056
-4028
-4010
-3983
-3959
-3915
-3903
-3877
-3857
-3825
-3785
-3758
-3739
-3709
-3678
-3636
-3611
-3580
-3550
-3509
-3467
-3438
-3413
-3381
-3344
-3302
-3281
-3252
-3222
-3180
-3138
-3110
-3080
-3047
-3001
-2965
-2940
-2914
-2886
-2851
-2821
-2805
-2786
-2767
-2738
-2717
-2703
-2689
-2672
-2645
-2625
-2622
-2604
-2592
-2555
-2545
-2530
-2517
-2496
-2471
-2453
-2446
-2428
-2415
-2379
-2378
-2364
-2355
-2337
-2314
-2306
-2307
-2300
-2293
-2277
-2281
-2277
-2275
-2263
-2248
-2244
-2242
-2230
-2212
-2188
-2182
-2167
-2153
-2126
-2101
-2092
-2081
-2067
-2041
-2026
-2020
-2011
-2001
-1981
-1966
-1965
-1962
-1961
-1950
-1952
-1960
-1970
-1978
-1976
-1983
-2007
-2014
-2026
-2014
-2027
-2033
-2040
-2038
-2028
-2023
-2030
-2023
-2020
-1994
-2003
-1998
-2000
-1991
-1977
-1977
-1983
-1982
-1980
-1969
-1979
-1983
-1991
-1991
-1992
-2007
-2027
-2040
-2046
-2049
-2070
-2083
-2094
-2092
-2090
-2102
-2109
-2112
-2098
-2095
-2098
-2098
-2096
-2084
-2076
-2081
-2085
-2089
-2080
-2086
-2095
-2105
-2111
-2107
-2114
-2138
-2149
-2169
-2168
-2192
-2212
-2235
-2248
-2254
-2268
-2292
-2301
-2313
-2299
-2320
-2327
-2335
-2330
-2320
-2322
-2329
-2328
-2324
-2314
-2324
-2328
-2334
-2331
-2327
-2339
-2353
-2362
-2364
-2366
-2386
-2400
-2417
-2423
-2432
-2457
-2475
-2491
-2489
-2498
-2512
-2519
-2521
-2512
-2503
-2503
-2496
-2489
-2465
-2459
-2452
-2446
-2434
-2412
-2401
-2407
-2400
-2399
-2380
-2384
-2386
-2390
-2388
-2381
-2386
-2405
-2410
-2421
-2409
-2431
-2440
-2451
-2449
-2442
-2444
-2447
-2441
-2430
-2408
-2404
-2391
-2380
-2357
-2333
-2322
-2312
-2298
-2276
-2256
-2253
-2247
-2242
-2228
-2218
-2226
-2228
-2231
-2220
-2222
-2232
-2241
-2246
-2242
-2241
-2249
-2251
-2252
-2231
-2229
-2220
-2210
-2189
-2153
-2125
-2109
-2079
-2052
-2005
-1978
-1946
-1917
-1881
-1838
-1804
-1785
-1749
-1719
-1669
-1652
-1625
-1603
-1571
-1537
-1515
-1495
-1468
-1436
-1394
-1369
-1333
-1294
-1240
-1181
-1132
-1080
-1019
-945
-870
-810
-743
-676
-597
-520
-461
-396
-333
-254
-190
-135
-80
-25
37
94
138
186
231
295
333
377
419
470
531
584
627
682
735
809
864
927
988
1058
1135
1199
1248
1312
1368
1442
1485
1535
1581
1634
1687
1726
1760
1797
1836
1879
1897
1922
1944
1975
2007
2025
2042
2066
2101
2135
2158
2189
2222
2270
2317
2350
2391
2431
2487
2531
2565
2600
2635
2674
2707
2725
2747
2764
2801
2806
2815
2820
2829
2845
2850
2842
2841
2837
2850
2841
2841
2837
2844
2861
2868
2864
2878
2891
2923
2933
2951
2966
2991
3017
3030
3037
3050
3063
3080
3074
3073
3067
3070
3071
3055
3037
3021
3012
2997
2967
2941
2916
2904
2890
2863
2845
2830
2832
2828
2819
2815
2815
2826
2835
2829
2834
2834
2857
2848
2845
2835
2831
2832
2821
2798
2781
2759
2753
2718
2690
2655
2627
2604
2567
2518
2484
2449
2431
2395
2368
2344
2332
2326
2311
2296
2292
2293
2301
2288
2283
2276
2280
2282
2266
2250
2234
2228
2214
2185
2159
2133
2117
2094
2055
2019
1982
1956
1921
1880
1842
1810
1789
1765
1729
1709
1687
1692
1668
1655
1641
1636
1638
1632
1617
1608
1595
1598
1570
1550
1521
1501
1487
1459
1419
1391
1361
1344
1307
1277
1244
1220
1199
1168
1137
1116
1104
1101
1081
1073
1067
1074
1083
1078
1074
1073
1084
1086
1077
1072
1066
1070
1067
1049
1034
1019
1016
1006
989
973
961
957
946
919
906
887
893
873
862
851
851
859
863
859
866
872
899
896
903
905
917
933
935
927
928
926
932
917
906
891
883
876
853
827
807
792
780
748
723
698
686
675
652
634
621
624
621
611
608
610
624
635
632
632
633
645
647
642
637
634
638
634
612
603
588
597
577
563
546
537
534
523
502
493
481
494
474
469
463
470
485
489
488
497
507
525
525
530
532
543
554
550
541
539
541
544
528
516
503
499
492
468
447
429
425
409
386
367
353
351
348
335
327
323
336
339
342
346
355
374
384
376
384
384
406
400
397
391
390
395
389
369
361
346
352
321
302
278
264
256
237
215
201
192
193
177
170
165
172
184
186
187
195
211
228
227
233
237
251
262
257
254
251
262
260
248
239
230
228
222
202
185
167
164
148
133
118
111
117
117
104
107
108
133
136
143
148
160
177
185
179
185
185
206
189
185
174
173
173
161
143
129
116
109
83
65
45
39
36
21
7
3
10
21
18
24
32
54
74
78
88
99
125
136
137
139
140
148
152
143
137
129
137
126
115
101
93
94
87
66
60
51
64
59
59
61
73
94
108
110
132
148
188
194
211
224
246
268
277
279
285
291
301
289
283
274
274
274
259
241
229
225
221
202
192
184
191
198
191
194
200
223
237
245
258
273
296
314
319
326
329
347
339
331
318
309
308
295
268
252
231
226
199
175
148
130
121
103
76
68
59
75
64
66
68
82
100
110
116
129
144
167
169
178
183
197
211
209
204
203
209
212
199
190
183
185
185
168
157
147
155
154
148
148
154
172
190
198
213
227
262
270
281
289
302
323
332
327
330
327
340
329
323
312
309
313
305
283
277
267
277
261
253
245
247
253
252
249
256
269
293
297
312
326
352
378
387
394
406
426
441
440
443
445
456
462
451
445
437
442
437
423
411
401
398
391
372
363
352
366
353
349
344
349
364
371
368
376
380
400
396
398
395
400
411
409
391
387
379
386
368
356
341
334
327
309
286
271
260
255
230
215
200
197
197
184
174
171
180
187
182
183
184
197
204
195
191
186
192
189
177
166
157
155
148
125
112
93
97
69
49
26
12
7
-5
-25
-37
-49
-40
-57
-62
-70
-66
-53
-53
-63
-60
-61
-48
-57
-62
-71
-71
-71
-82
-98
-107
-114
-115
-139
-155
-173
-182
-192
-216
-238
-257
-262
-272
-293
-308
-320
-319
-320
-334
-340
-345
-334
-330
-334
-335
-333
-322
-318
-330
-331
-338
-320
-335
-342
-353
-357
-354
-360
-378
-389
-403
-398
-425
-440
-460
-467
-466
-476
-494
-498
-501
-491
-498
-496
-493
-479
-463
-457
-454
-445
-432
-415
-420
-417
-416
-404
-394
-399
-402
-402
-389
-386
-394
-400
-407
-403
-404
-418
-426
-433
-426
-426
-430
-431
-426
-410
-399
-403
-391
-384
-352
-348
-338
-330
-316
-297
-289
-293
-290
-293
-276
-296
-305
-320
-327
-329
-346
-372
-388
-405
-411
-434
-449
-463
-465
-461
-466
-471
-466
-451
-429
-424
-409
-393
-365
-339
-328
-314
-298
-271
-255
-250
-243
-237
-222
-212
-216
-218
-222
-216
-222
-235
-249
-259
-258
-263
-282
-282
-284
-260
-258
-248
-238
-218
-190
-168
-158
-135
-117
-75
-69
-51
-40
-20
3
10
8
12
13
21
8
-1
-15
-21
-27
-47
-70
-84
-91
-93
-110
-116
-119
-106
-91
-89
-82
-69
-40
-23
-13
1
17
44
64
72
81
89
108
113
114
113
116
129
132
118
119
113
130
124
122
121
128
144
155
157
175
192
234
243
267
287
317
350
371
385
405
424
448
450
456
457
466
474
467
455
449
449
449
431
420
409
410
411
398
392
391
408
416
420
431
447
474
499
514
531
548
577
589
599
606
615
632
636
621
617
605
609
588
567
542
520
503
475
431
399
359
339
282
233
175
122
67
-7
-92
-178
-268
-357
-474
-590
-715
-834
-956
-1094
-1237
-1374
-1504
-1633
-1780
-1920
-2058
-2182
-2305
-2444
-2576
-2705
-2816
-2937
-3064
-3187
-3309
-3422
-3538
-3665
-3787
-3907
-4004
-4118
-4225
-4330
-4421
-4491
-4560
-4629
-4667
-4690
-4673
-4658
-4622
-4571
-4497
-4395
-4280
-4149
-3968
-3756
-3482
-3202
-2870
-2502
-2089
-1640
-1170
-671
-135
432
1031
1629
2252
2882
3522
4156
4761
5343
5906
6451
6971
7450
7911
8349
8770
9162
9513
9846
10161
10475
10765
11033
11284
11513
11720
11892
12019
12120
12187
12240
12236
12205
12143
12063
11971
11850
11700
11547
11378
11214
11012
10799
10561
10309
10041
9743
9415
9088
8742
8405
8028
7652
7267
6888
6509
6119
5727
5345
4970
4607
4229
3866
3509
3170
2843
2511
2190
1886
1603
1330
1056
797
551
326
108
-115
-322
-521
-698
-879
-1061
-1236
-1402
-1556
-1708
-1867
-2012
-2154
-2267
-2401
-2521
-2636
-2737
-2821
-2908
-2999
-3073
-3143
-3187
-3245
-3289
-3331
-3356
-3368
-3386
-3413
-3420
-3428
-3415
-3425
-3427
-3430
-3425
-3417
-3421
-3430
-3435
-3437
-3433
-3451
-3461
-3474
-3476
-3476
-3489
-3501
-3507
-3502
-3500
-3509
-3513
-3514
-3499
-3484
-3482
-3470
-3453
-3418
-3390
-3368
-3342
-3312
-3275
-3243
-3225
-3200
-3180
-3138
-3128
-3112
-3101
-3083
-3059
-3045
-3041
-3029
-3020
-2993
-2991
-2980
-2974
-2959
-2936
-2927
-2929
-2915
-2903
-2874
-2867
-2851
-2835
-2808
-2779
-2760
-2744
-2719
-2692
-2659
-2648
-2630
-2615
-2591
-2568
-2561
-2554
-2544
-2525
-2512
-2512
-2509
-2504
-2489
-2479
-2485
-2486
-2488
-2478
-2475
-2479
-2480
-2475
-2461
-2447
-2447
-2432
-2420
-2380
-2369
-2349
-2331
-2305
-2272
-2248
-2233
-2210
-2193
-2157
-2152
-2139
-2132
-2116
-2094
-2087
-2092
-2085
-2081
-2065
-2071
-2072
-2075
-2068
-2058
-2058
-2060
-2052
-2035
-2010
-2003
-1985
-1966
-1934
-1901
-1882
-1863
-1842
-1810
-1787
-1776
-1763
-1751
-1731
-1717
-1720
-1719
-1719
-1707
-1705
-1712
-1719
-1725
-1722
-1726
-1747
-1753
-1765
-1751
-1765
-1770
-1776
-1771
-1758
-1751
-1751
-1742
-1733
-1703
-1705
-1696
-1694
-1683
-1668
-1668
-1680
-1682
-1686
-1681
-1696
-1706
-1721
-1728
-1734
-1754
-1778
-1795
-1808
-1816
-1843
-1861
-1878
-1882
-1884
-1899
-1910
-1915
-1905
-1901
-1905
-1905
-1899
-1881
-1869
-1870
-1869
-1868
-1857
-1858
-1867
-1878
-1887
-1889
-1898
-1927
-1943
-1967
-1968
-1997
-2023
-2051
-2073
-2087
-2109
-2140
-2157
-2177
-2172
-2199
-2210
-2224
-2226
-2219
-2224
-2234
-2233
-2230
-2219
-2227
-2230
-2236
-2234
-2232
-2244
-2260
-2270
-2275
-2276
-2297
-2311
-2328
-2334
-2342
-2367
-2389
-2408
-2413
-2427
-2447
-2461
-2471
-2468
-2466
-2474
-2475
-2473
-2455
-2444
-2435
-2425
-2409
-2383
-2365
-2364
-2347
-2338
-2308
-2303
-2294
-2288
-2276
-2258
-2251
-2256
-2251
-2251
-2230
-2247
-2251
-2260
-2259
-2252
-2254
-2260
-2256
-2247
-2228
-2225
-2214
-2203
-2179
-2151
-2136
-2124
-2103
-2077
-2049
-2039
-2025
-2012
-1990
-1971
-1969
-1965
-1962
-1946
-1943
-1950
-1956
-1961
-1957
-1959
-1972
-1982
-1992
-1984
-1989
-1994
-1996
-1989
-1968
-1953
-1951
-1932
-1916
-1876
-1859
-1837
-1818
-1791
-1760
-1738
-1730
-1711
-1698
-1662
-1664
-1653
-1647
-1631
-1611
-1602
-1599
-1589
-1576
-1554
-1550
-1536
-1522
-1492
-1458
-1432
-1404
-1364
-1313
-1257
-1216
-1164
-1109
-1042
-976
-925
-869
-813
-741
-684
-636
-586
-535
-476
-423
-381
-337
-293
-233
-191
-148
-107
-60
-1
50
86
139
190
262
317
378
440
510
590
662
722
797
865
955
1009
1073
1132
1198
1264
1317
1362
1410
1457
1510
1540
1576
1609
1652
1695
1723
1748
1778
1816
1854
1877
1908
1940
1985
2029
2059
2096
2134
2189
2233
2269
2306
2344
2387
2425
2450
2476
2497
2534
2547
2561
2571
2586
2609
2621
2618
2626
2629
2650
2649
2653
2655
2664
2681
2689
2685
2699
2709
2743
2747
2763
2779
2806
2837
2856
2870
2889
2908
2934
2936
2944
2948
2960
2970
2964
2954
2947
2946
2943
2922
2906
2888
2880
2869
2841
2820
2800
2797
2784
2765
2750
2740
2741
2740
2729
2726
2721
2737
2727
2720
2709
2702
2702
2690
2662
2643
2619
2611
2579
2551
2519
2493
2474
2442
2395
2365
2329
2314
2272
2241
2209
2188
2171
2146
2119
2101
2089
2087
2066
2055
2044
2044
2045
2031
2014
2002
1997
1988
1963
1943
1923
1914
1901
1871
1849
1825
1816
1797
1769
1744
1722
1710
1695
1669
1653
1636
1644
1627
1619
1609
1610
1621
1624
1618
1620
1617
1630
1618
1612
1598
1591
1589
1572
1540
1522
1497
1487
1450
1419
1384
1357
1330
1293
1251
1218
1189
1170
1132
1105
1080
1067
1058
1035
1015
1002
1001
999
985
976
968
970
967
947
931
913
908
892
866
842
821
807
790
757
735
706
701
665
638
608
588
578
563
540
528
517
526
511
506
498
501
513
511
498
498
495
506
493
485
474
470
467
451
431
419
411
409
387
371
355
348
340
318
297
282
281
276
262
256
254
266
276
272
278
285
306
318
323
329
338
354
364
356
359
355
375
362
357
347
344
348
342
324
313
298
303
278
265
249
245
252
248
239
246
254
277
284
298
312
334
359
370
378
394
412
433
432
437
438
449
458
451
443
438
444
441
427
415
404
404
400
384
373
365
372
374
371
373
380
399
413
411
424
429
457
456
459
460
465
476
477
467
465
457
468
446
434
417
409
407
392
368
355
342
341
323
314
305
310
320
320
321
331
350
374
379
391
402
424
445
449
454
460
477
482
475
469
464
468
466
450
437
422
420
408
391
374
363
363
357
336
332
326
348
346
351
357
373
395
410
412
425
432
459
450
452
447
451
459
451
435
425
415
412
389
370
350
339
330
310
287
274
271
273
259
255
254
267
282
284
292
304
330
345
351
357
364
380
389
385
382
376
382
374
360
344
331
329
316
286
271
250
253
231
216
201
195
197
193
179
181
179
203
194
200
200
210
223
221
213
210
207
209
190
176
158
149
142
120
96
79
67
58
30
9
-11
-19
-26
-47
-61
-71
-63
-63
-69
-70
-65
-48
-32
-26
-17
-8
15
21
24
24
27
39
39
21
16
5
13
-3
-16
-33
-46
-54
-72
-104
-121
-143
-139
-168
-183
-200
-204
-203
-210
-219
-219
-215
-201
-207
-205
-206
-197
-187
-191
-199
-202
-199
-197
-213
-224
-235
-236
-239
-260
-276
-292
-295
-311
-335
-356
-373
-378
-383
-397
-405
-409
-395
-397
-395
-392
-380
-357
-344
-345
-333
-326
-301
-300
-296
-297
-292
-283
-285
-301
-302
-310
-297
-319
-331
-348
-357
-364
-382
-402
-413
-420
-417
-430
-432
-433
-421
-405
-400
-394
-382
-361
-341
-338
-329
-320
-301
-287
-290
-290
-290
-277
-277
-285
-293
-298
-295
-296
-310
-321
-333
-327
-343
-352
-362
-361
-346
-337
-337
-323
-309
-276
-261
-240
-221
-195
-163
-142
-136
-114
-100
-67
-68
-60
-58
-49
-39
-42
-50
-53
-55
-52
-71
-83
-97
-99
-99
-112
-123
-125
-115
-103
-102
-93
-80
-54
-29
-20
-6
7
35
49
54
59
65
76
81
72
67
58
69
52
40
25
18
21
15
-2
-8
-15
-2
-8
-6
-4
9
32
46
47
66
81
115
120
132
141
157
174
179
177
179
182
190
175
167
155
153
152
135
118
106
103
99
83
72
64
71
76
68
69
73
93
105
111
121
134
155
171
172
179
180
203
194
190
183
181
187
182
164
155
141
145
124
110
91
81
79
66
41
36
28
40
31
32
34
47
65
74
82
97
116
142
145
156
165
182
198
198
196
197
206
210
199
190
183
186
184
167
155
143
146
142
132
125
121
128
133
126
134
138
170
173
185
195
210
232
245
245
251
252
268
255
250
238
235
239
228
204
194
179
178
154
137
119
111
108
96
83
82
89
104
102
111
122
147
172
183
194
209
234
252
257
262
267
282
290
281
277
272
279
278
268
258
250
250
244
222
213
202
219
208
207
206
214
230
238
237
246
252
279
275
281
280
287
299
294
277
269
258
256
235
218
200
190
182
161
136
118
104
95
68
49
32
29
28
15
7
5
17
22
20
22
27
43
54
50
49
47
55
52
41
28
18
17
9
-17
-28
-45
-36
-57
-73
-92
-103
-109
-121
-142
-151
-162
-148
-166
-168
-173
-164
-148
-142
-143
-134
-124
-104
-102
-94
-89
-76
-61
-60
-64
-60
-52
-41
-50
-53
-57
-52
-49
-61
-71
-79
-73
-76
-87
-93
-94
-81
-70
-69
-61
-50
-25
-9
2
14
29
53
69
66
77
80
104
99
97
92
92
97
91
73
64
48
55
24
7
-17
-29
-34
-50
-70
-80
-85
-79
-88
-89
-91
-79
-65
-62
-63
-56
-43
-28
-31
-28
-26
-16
-8
-18
-27
-36
-32
-43
-62
-81
-99
-109
-126
-155
-183
-213
-231
-264
-302
-342
-381
-415
-464
-536
-599
-674
-736
-829
-926
-1033
-1137
-1240
-1355
-1485
-1603
-1728
-1831
-1971
-2100
-2235
-2359
-2478
-2609
-2746
-2876
-3003
-3119
-3252
-3377
-3504
-3623
-3741
-3873
-4006
-4130
-4244
-4354
-4476
-4588
-4698
-4795
-4889
-4990
-5076
-5144
-5180
-5208
-5225
-5222
-5198
-5147
-5078
-4994
-4877
-4726
-4523
-4297
-4031
-3727
-3376
-2976
-2550
-2103
-1606
-1080
-503
79
687
1308
1944
2586
3214
3818
4418
4992
5568
6088
6599
7085
7558
8013
8433
8827
9207
9571
9927
10247
10553
10833
11094
11325
11508
11655
11775
11869
11929
11939
11924
11881
11825
11744
11627
11498
11356
11214
11043
10845
10628
10392
10143
9873
9575
9266
8943
8626
8279
7925
7562
7202
6849
6484
6105
5738
5368
5020
4655
4300
3949
3613
3293
2973
2651
2357
2069
1815
1542
1292
1051
831
624
416
214
25
-154
-318
-497
-662
-822
-967
-1104
-1249
-1390
-1519
-1636
-1748
-1871
-1984
-2091
-2181
-2267
-2363
-2445
-2519
-2570
-2624
-2678
-2721
-2754
-2772
-2786
-2806
-2816
-2823
-2808
-2817
-2819
-2823
-2820
-2809
-2810
-2827
-2834
-2848
-2846
-2867
-2884
-2906
-2921
-2928
-2949
-2983
-3000
-3021
-3020
-3044
-3055
-3064
-3059
-3047
-3041
-3034
-3017
-2995
-2962
-2949
-2925
-2902
-2868
-2833
-2814
-2796
-2775
-2747
-2725
-2720
-2713
-2707
-2692
-2683
-2691
-2694
-2697
-2686
-2685
-2693
-2697
-2698
-2690
-2683
-2686
-2677
-2668
-2633
-2621
-2599
-2578
-2546
-2504
-2469
-2445
-2414
-2387
-2344
-2327
-2306
-2293
-2274
-2251
-2243
-2252
-2248
-2251
-2237
-2251
-2258
-2269
-2271
-2273
-2286
-2302
-2311
-2313
-2305
-2315
-2313
-2309
-2289
-2265
-2253
-2239
-2218
-2187
-2159
-2146
-2129
-2113
-2087
-2066
-2064
-2059
-2057
-2043
-2042
-2051
-2060
-2068
-2069
-2074
-2093
-2102
-2116
-2105
-2123
-2133
-2146
-2149
-2140
-2138
-2142
-2134
-2127
-2098
-2093
-2079
-2067
-2046
-2017
-2002
-2001
-1985
-1974
-1949
-1948
-1942
-1940
-1930
-1921
-1925
-1933
-1934
-1934
-1927
-1942
-1950
-1959
-1958
-1957
-1970
-1981
-1987
-1980
-1976
-1982
-1981
-1975
-1956
-1940
-1937
-1927
-1917
-1894
-1881
-1877
-1871
-1864
-1850
-1843
-1853
-1852
-1858
-1840
-1853
-1860
-1870
-1873
-1868
-1872
-1885
-1890
-1898
-1887
-1903
-1907
-1914
-1909
-1894
-1889
-1893
-1881
-1869
-1841
-1833
-1819
-1807
-1787
-1766
-1758
-1755
-1747
-1735
-1719
-1725
-1725
-1727
-1720
-1714
-1725
-1736
-1745
-1742
-1748
-1765
-1779
-1791
-1792
-1796
-1812
-1821
-1827
-1817
-1813
-1813
-1809
-1799
-1778
-1761
-1760
-1746
-1740
-1709
-1710
-1705
-1705
-1699
-1688
-1688
-1699
-1704
-1715
-1707
-1732
-1747
-1770
-1784
-1793
-1817
-1850
-1871
-1892
-1900
-1923
-1939
-1954
-1956
-1953
-1960
-1966
-1962
-1949
-1929
-1928
-1920
-1913
-1895
-1878
-1877
-1875
-1872
-1858
-1854
-1861
-1866
-1871
-1867
-1869
-1887
-1903
-1920
-1925
-1939
-1958
-1976
-1988
-1987
-1991
-2010
-2009
-2012
-1987
-1987
-1977
-1968
-1948
-1923
-1904
-1896
-1878
-1865
-1832
-1836
-1829
-1829
-1821
-1808
-1810
-1820
-1822
-1825
-1820
-1835
-1845
-1859
-1863
-1866
-1881
-1896
-1901
-1896
-1885
-1890
-1885
-1878
-1857
-1834
-1824
-1807
-1787
-1753
-1729
-1714
-1698
-1680
-1654
-1633
-1626
-1619
-1611
-1592
-1586
-1584
-1582
-1576
-1561
-1554
-1564
-1557
-1555
-1528
-1523
-1509
-1494
-1467
-1430
-1395
-1367
-1323
-1280
-1210
-1171
-1117
-1067
-1006
-939
-885
-837
-782
-729
-669
-629
-585
-543
-493
-441
-404
-370
-330
-284
-235
-206
-170
-132
-82
-31
8
53
103
171
231
287
346
410
484
556
616
677
737
808
862
912
958
1006
1063
1109
1135
1175
1207
1259
1285
1316
1342
1375
1414
1443
1460
1491
1518
1571
1589
1622
1654
1699
1749
1790
1826
1869
1914
1965
1996
2031
2062
2102
2141
2164
2182
2204
2232
2258
2264
2274
2283
2303
2319
2319
2322
2324
2340
2343
2338
2337
2340
2353
2365
2370
2380
2392
2422
2435
2451
2466
2487
2518
2538
2541
2555
2564
2590
2592
2596
2595
2598
2605
2601
2582
2576
2563
2573
2548
2533
2514
2504
2497
2480
2460
2447
2439
2440
2424
2417
2411
2417
2427
2424
2420
2422
2431
2440
2431
2427
2422
2424
2423
2405
2389
2373
2370
2353
2328
2305
2284
2270
2251
2221
2195
2168
2160
2133
2111
2088
2075
2076
2070
2052
2050
2045
2061
2057
2058
2055
2059
2068
2065
2047
2043
2031
2039
2012
1994
1970
1953
1936
1905
1868
1837
1808
1787
1745
1712
1678
1657
1640
1612
1585
1568
1562
1558
1542
1534
1528
1537
1543
1531
1525
1517
1524
1516
1499
1480
1462
1450
1433
1401
1373
1342
1331
1292
1260
1225
1198
1182
1159
1125
1105
1084
1084
1066
1056
1045
1046
1057
1059
1049
1058
1061
1084
1077
1078
1074
1078
1083
1076
1062
1055
1049
1049
1028
1015
999
993
987
963
939
920
909
897
872
854
840
839
837
821
814
809
820
824
821
823
827
838
845
838
837
831
846
831
820
805
798
799
790
769
756
739
739
714
694
669
652
645
627
599
588
575
582
567
561
556
561
571
572
569
575
583
599
592
594
592
599
605
595
583
574
576
573
557
544
532
531
524
500
483
465
463
456
442
434
431
440
447
442
449
453
485
488
499
508
524
548
562
564
572
575
594
584
581
572
572
579
572
552
545
534
535
514
499
483
476
472
460
446
442
444
457
450
454
458
475
493
495
498
504
520
528
521
516
510
512
508
486
469
451
445
429
404
380
357
344
325
291
271
247
250
226
211
197
194
201
201
195
199
201
222
213
214
209
214
225
220
204
198
189
190
170
155
137
128
120
100
77
62
51
47
24
10
-2
0
5
-2
-3
3
23
38
45
57
72
96
117
122
130
138
155
162
161
158
157
164
165
147
143
132
144
127
116
103
97
98
92
77
74
68
84
69
69
67
78
97
105
104
113
121
140
138
142
141
147
153
145
131
124
120
120
99
83
66
58
48
23
0
-19
-24
-36
-55
-68
-76
-70
-65
-70
-69
-65
-47
-38
-34
-30
-22
-4
5
-4
0
-3
16
7
3
-6
-10
-10
-19
-41
-53
-71
-68
-100
-118
-140
-149
-149
-159
-174
-177
-175
-162
-165
-161
-156
-140
-122
-117
-116
-107
-93
-77
-82
-82
-85
-79
-76
-91
-105
-118
-118
-131
-154
-176
-195
-206
-221
-248
-271
-290
-294
-307
-320
-330
-333
-321
-315
-321
-310
-304
-274
-268
-259
-251
-236
-217
-208
-212
-205
-206
-184
-201
-205
-216
-217
-214
-224
-241
-251
-259
-257
-273
-279
-284
-276
-262
-259
-255
-240
-217
-188
-175
-154
-134
-102
-73
-60
-45
-28
0
14
18
22
26
38
44
38
32
26
33
23
13
1
-5
2
1
-12
-8
-6
20
27
39
51
73
103
125
134
157
173
211
212
223
227
240
254
255
248
247
247
253
239
232
221
220
222
210
196
190
193
200
193
195
200
220
241
249
264
282
317
340
354
370
387
411
429
434
440
443
461
457
453
445
443
451
447
429
422
409
415
400
389
378
375
380
376
362
365
364
388
381
387
391
404
419
422
420
424
429
440
428
423
414
414
414
398
379
367
362
355
331
311
291
282
271
245
226
210
212
203
191
182
179
186
191
187
188
188
207
201
198
192
191
199
195
176
168
156
161
144
131
115
106
103
89
62
52
37
46
26
20
14
19
29
31
30
37
49
71
73
84
93
112
131
135
136
140
151
157
145
137
127
128
125
104
88
72
68
52
28
6
-11
-19
-26
-44
-52
-61
-45
-54
-55
-56
-47
-26
-14
-13
-2
4
27
26
28
24
25
32
25
3
-4
-16
-11
-33
-48
-67
-78
-88
-108
-131
-145
-152
-148
-163
-166
-166
-153
-136
-131
-125
-111
-87
-66
-59
-48
-39
-19
-5
-11
-12
-16
-8
-11
-25
-36
-46
-50
-57
-80
-95
-115
-111
-137
-154
-171
-179
-175
-179
-190
-189
-187
-166
-167
-157
-151
-136
-113
-104
-109
-101
-98
-80
-90
-95
-105
-108
-111
-127
-147
-161
-171
-173
-198
-214
-231
-237
-242
-260
-276
-283
-277
-273
-279
-279
-275
-257
-242
-242
-235
-229
-209
-199
-198
-196
-193
-184
-181
-194
-197
-207
-193
-211
-222
-236
-243
-244
-254
-275
-287
-301
-297
-319
-329
-341
-340
-328
-326
-333
-324
-315
-291
-287
-277
-269
-252
-233
-226
-224
-216
-206
-192
-199
-199
-201
-191
-181
-186
-189
-189
-178
-175
-183
-187
-189
-178
-171
-178
-177
-174
-156
-143
-136
-124
-108
-82
-60
-56
-38
-27
9
14
25
31
44
61
69
66
69
68
85
70
65
53
49
51
38
16
5
-6
-5
-22
-31
-41
-38
-33
-40
-50
-55
-59
-63
-95
-126
-168
-207
-256
-331
-412
-499
-583
-682
-797
-913
-1031
-1142
-1260
-1394
-1525
-1657
-1778
-1907
-2042
-2174
-2300
-2415
-2532
-2662
-2773
-2888
-2978
-3099
-3214
-3333
-3448
-3559
-3680
-3812
-3933
-4058
-4162
-4301
-4425
-4549
-4653
-4738
-4822
-4897
-4945
-4975
-4978
-4981
-4956
-4908
-4819
-4694
-4540
-4348
-4106
-3816
-3479
-3121
-2717
-2275
-1785
-1258
-716
-144
451
1074
1693
2303
2910
3509
4103
4675
5214
5737
6243
6740
7206
7647
8065
8468
8859
9223
9553
9882
10183
10486
10737
10963
11156
11323
11462
11558
11611
11643
11640
11633
11564
11486
11381
11268
11141
10983
10798
10599
10380
10148
9878
9599
9302
9003
8696
8366
8025
7683
7341
6998
6636
6280
5926
5587
5252
4907
4573
4249
3948
3643
3339
3046
2765
2504
2246
1985
1735
1492
1271
1043
820
604
399
212
24
-174
-349
-523
-669
-832
-986
-1137
-1276
-1403
-1532
-1667
-1781
-1891
-1970
-2077
-2163
-2244
-2306
-2357
-2412
-2464
-2502
-2534
-2553
-2589
-2614
-2638
-2650
-2659
-2681
-2704
-2720
-2729
-2737
-2762
-2782
-2802
-2812
-2826
-2857
-2886
-2913
-2926
-2949
-2978
-3002
-3020
-3027
-3033
-3047
-3055
-3059
-3045
-3044
-3039
-3033
-3020
-2994
-2976
-2974
-2956
-2944
-2912
-2904
-2894
-2887
-2875
-2858
-2851
-2859
-2853
-2853
-2833
-2849
-2855
-2867
-2869
-2868
-2877
-2888
-2891
-2889
-2876
-2879
-2872
-2862
-2839
-2811
-2794
-2777
-2753
-2718
-2682
-2661
-2633
-2606
-2569
-2535
-2519
-2499
-2480
-2447
-2428
-2419
-2408
-2397
-2380
-2368
-2368
-2367
-2367
-2350
-2352
-2350
-2347
-2334
-2307
-2287
-2277
-2251
-2227
-2181
-2154
-2122
-2091
-2052
-2005
-1969
-1948
-1913
-1885
-1837
-1824
-1803
-1788
-1766
-1744
-1736
-1735
-1732
-1728
-1719
-1731
-1736
-1742
-1736
-1727
-1729
-1730
-1721
-1700
-1676
-1665
-1645
-1622
-1586
-1553
-1535
-1513
-1490
-1452
-1427
-1412
-1395
-1378
-1357
-1341
-1338
-1334
-1333
-1315
-1324
-1330
-1342
-1347
-1344
-1351
-1371
-1379
-1388
-1379
-1388
-1391
-1393
-1385
-1367
-1357
-1358
-1341
-1328
-1295
-1291
-1277
-1266
-1248
-1229
-1223
-1222
-1218
-1213
-1203
-1216
-1222
-1232
-1233
-1235
-1253
-1274
-1289
-1296
-1305
-1327
-1342
-1354
-1352
-1351
-1364
-1366
-1365
-1347
-1336
-1331
-1323
-1312
-1295
-1282
-1283
-1278
-1278
-1257
-1266
-1271
-1281
-1285
-1283
-1292
-1314
-1329
-1349
-1355
-1386
-1412
-1443
-1466
-1480
-1504
-1541
-1559
-1578
-1576
-1595
-1603
-1610
-1605
-1595
-1595
-1598
-1595
-1589
-1577
-1588
-1593
-1601
-1600
-1600
-1617
-1636
-1652
-1660
-1674
-1702
-1727
-1752
-1765
-1783
-1816
-1843
-1869
-1878
-1894
-1914
-1928
-1937
-1934
-1931
-1940
-1936
-1933
-1904
-1904
-1896
-1892
-1882
-1865
-1858
-1865
-1865
-1871
-1861
-1878
-1888
-1904
-1913
-1915
-1930
-1959
-1975
-1994
-1998
-2024
-2041
-2056
-2060
-2059
-2066
-2073
-2069
-2057
-2036
-2034
-2022
-2009
-1986
-1962
-1955
-1948
-1939
-1922
-1912
-1916
-1918
-1922
-1916
-1917
-1934
-1947
-1960
-1962
-1973
-1993
-2011
-2026
-2031
-2039
-2061
-2066
-2073
-2052
-2057
-2053
-2049
-2034
-2011
-1994
-1985
-1967
-1951
-1918
-1914
-1902
-1895
-1880
-1859
-1854
-1861
-1856
-1853
-1837
-1843
-1843
-1846
-1839
-1832
-1836
-1845
-1845
-1840
-1828
-1835
-1832
-1827
-1808
-1786
-1775
-1760
-1739
-1705
-1676
-1655
-1630
-1602
-1563
-1529
-1509
-1485
-1461
-1425
-1397
-1377
-1356
-1332
-1298
-1269
-1255
-1226
-1203
-1154
-1136
-1110
-1085
-1052
-1011
-974
-944
-902
-860
-795
-758
-708
-660
-600
-532
-476
-429
-370
-312
-243
-193
-139
-87
-26
35
82
126
178
234
293
333
379
423
478
531
569
608
650
705
754
793
838
887
948
1005
1050
1100
1152
1216
1270
1317
1365
1415
1473
1524
1556
1602
1640
1701
1732
1766
1797
1833
1873
1905
1923
1949
1969
2010
2016
2034
2046
2069
2098
2114
2125
2146
2169
2203
2219
2243
2266
2300
2336
2359
2379
2406
2439
2473
2488
2509
2529
2559
2587
2597
2609
2621
2646
2658
2659
2661
2664
2675
2680
2673
2668
2664
2674
2675
2673
2672
2678
2697
2709
2706
2718
2723
2751
2750
2754
2753
2758
2765
2762
2744
2736
2720
2726
2693
2671
2642
2622
2604
2572
2534
2502
2472
2450
2409
2377
2344
2324
2308
2282
2256
2241
2235
2236
2221
2213
2206
2209
2211
2196
2184
2173
2175
2164
2144
2126
2109
2100
2086
2059
2034
2007
1992
1962
1930
1896
1868
1853
1832
1796
1777
1756
1760
1744
1735
1727
1729
1739
1741
1730
1734
1732
1752
1737
1733
1724
1724
1727
1716
1700
1689
1677
1672
1645
1623
1597
1580
1564
1533
1501
1476
1461
1449
1422
1405
1391
1390
1391
1378
1372
1371
1386
1389
1385
1382
1381
1387
1388
1376
1366
1354
1358
1341
1325
1305
1290
1285
1269
1236
1216
1190
1185
1159
1138
1118
1107
1105
1096
1076
1074
1070
1091
1080
1085
1087
1100
1117
1123
1124
1129
1135
1146
1134
1128
1117
1116
1115
1098
1078
1063
1054
1043
1013
988
962
948
933
903
883
864
865
856
843
833
829
834
839
835
835
834
851
844
840
832
828
832
824
801
787
767
765
739
716
690
671
657
630
590
566
538
534
502
483
465
460
460
452
442
441
445
460
455
458
460
472
484
481
473
469
472
469
448
430
411
401
387
356
331
305
293
270
240
214
191
180
169
150
140
132
146
136
134
131
137
154
160
154
157
154
169
160
153
142
136
136
122
93
80
62
64
37
20
0
-10
-17
-35
-54
-64
-68
-62
-75
-76
-76
-62
-47
-43
-39
-29
-9
7
9
14
20
36
46
36
31
24
30
24
11
-1
-9
-10
-13
-28
-35
-45
-31
-46
-52
-59
-54
-37
-27
-25
-12
1
33
43
60
72
91
117
127
124
135
140
159
152
149
142
143
144
133
117
108
101
101
79
65
50
46
42
25
9
0
4
6
-2
-3
0
16
30
29
33
37
55
62
60
60
61
69
71
58
54
43
54
34
20
1
-11
-15
-28
-51
-64
-79
-75
-95
-105
-119
-120
-111
-112
-123
-117
-113
-92
-93
-89
-86
-76
-64
-64
-69
-66
-60
-48
-58
-61
-66
-60
-55
-65
-75
-81
-78
-82
-98
-111
-121
-118
-118
-131
-137
-140
-128
-121
-119
-113
-103
-83
-68
-68
-55
-49
-18
-19
-15
-14
-8
4
7
-1
-3
-10
1
-20
-32
-51
-60
-63
-78
-103
-114
-125
-122
-136
-141
-146
-139
-126
-121
-116
-102
-82
-56
-52
-40
-30
-9
10
13
17
22
39
46
42
40
38
45
46
31
19
6
6
-1
-14
-23
-26
-18
-14
-25
-19
-17
12
15
27
37
55
80
97
104
119
128
158
153
160
161
171
186
186
178
178
177
185
173
164
152
150
150
141
129
127
133
145
139
142
146
163
182
187
194
204
227
239
242
246
250
264
272
265
261
257
265
262
253
242
233
232
222
194
180
160
166
147
134
120
115
117
110
92
84
71
77
41
13
-28
-68
-111
-178
-262
-347
-441
-531
-646
-758
-875
-986
-1097
-1223
-1352
-1474
-1591
-1703
-1832
-1953
-2074
-2182
-2289
-2408
-2521
-2630
-2725
-2834
-2953
-3071
-3188
-3297
-3412
-3543
-3673
-3808
-3933
-4074
-4219
-4361
-4491
-4601
-4707
-4812
-4885
-4947
-4970
-5001
-5011
-5003
-4964
-4891
-4792
-4666
-4485
-4264
-3976
-3679
-3328
-2944
-2510
-2032
-1530
-998
-431
158
771
1375
1990
2600
3211
3808
4371
4907
5424
5922
6397
6827
7236
7618
7985
8326
8630
8921
9197
9471
9712
9920
10102
10258
10393
10496
10558
10594
10601
10595
10548
10477
10381
10271
10154
10011
9837
9663
9470
9283
9058
8821
8568
8310
8048
7768
7466
7171
6863
6573
6242
5922
5596
5280
4968
4648
4327
4017
3715
3427
3127
2843
2565
2308
2062
1809
1562
1329
1114
907
692
492
301
128
-39
-215
-380
-537
-673
-815
-960
-1096
-1225
-1341
-1455
-1574
-1684
-1787
-1867
-1960
-2044
-2123
-2187
-2232
-2280
-2335
-2370
-2403
-2412
-2439
-2459
-2478
-2487
-2487
-2496
-2518
-2523
-2534
-2523
-2545
-2556
-2572
-2580
-2587
-2607
-2633
-2655
-2675
-2688
-2721
-2745
-2769
-2780
-2788
-2808
-2824
-2831
-2824
-2813
-2814
-2805
-2790
-2762
-2735
-2722
-2703
-2683
-2647
-2623
-2607
-2589
-2569
-2542
-2520
-2511
-2500
-2494
-2471
-2475
-2477
-2483
-2484
-2475
-2476
-2490
-2491
-2495
-2478
-2479
-2474
-2468
-2452
-2424
-2404
-2394
-2364
-2338
-2290
-2271
-2243
-2218
-2186
-2154
-2133
-2118
-2098
-2076
-2049
-2045
-2036
-2032
-2020
-2009
-2014
-2023
-2027
-2022
-2019
-2029
-2031
-2031
-2016
-2001
-2000
-1988
-1974
-1940
-1915
-1895
-1872
-1846
-1812
-1781
-1762
-1739
-1720
-1682
-1674
-1662
-1655
-1643
-1623
-1615
-1621
-1620
-1625
-1615
-1630
-1641
-1655
-1661
-1656
-1660
-1675
-1671
-1669
-1645
-1643
-1630
-1616
-1590
-1560
-1540
-1523
-1500
-1474
-1440
-1430
-1414
-1402
-1381
-1362
-1361
-1361
-1360
-1350
-1347
-1359
-1369
-1380
-1382
-1388
-1411
-1428
-1444
-1444
-1452
-1465
-1473
-1474
-1464
-1454
-1455
-1444
-1435
-1401
-1396
-1384
-1376
-1360
-1337
-1325
-1327
-1324
-1326
-1314
-1328
-1338
-1353
-1361
-1363
-1381
-1413
-1431
-1453
-1459
-1488
-1508
-1527
-1533
-1534
-1542
-1550
-1546
-1536
-1516
-1515
-1503
-1491
-1468
-1444
-1435
-1426
-1413
-1391
-1376
-1376
-1374
-1374
-1364
-1361
-1374
-1383
-1393
-1390
-1398
-1416
-1433
-1448
-1455
-1466
-1490
-1501
-1514
-1498
-1509
-1510
-1510
-1500
-1480
-1467
-1463
-1452
-1444
-1419
-1424
-1421
-1425
-1422
-1413
-1419
-1439
-1448
-1461
-1463
-1486
-1504
-1524
-1535
-1545
-1566
-1590
-1605
-1615
-1617
-1638
-1649
-1659
-1656
-1650
-1656
-1660
-1658
-1643
-1634
-1638
-1638
-1638
-1629
-1626
-1640
-1651
-1664
-1667
-1680
-1704
-1727
-1748
-1761
-1779
-1815
-1838
-1869
-1875
-1911
-1940
-1971
-1994
-2007
-2026
-2052
-2066
-2080
-2071
-2090
-2096
-2105
-2100
-2088
-2089
-2100
-2100
-2101
-2090
-2099
-2105
-2113
-2113
-2111
-2121
-2136
-2143
-2147
-2145
-2164
-2174
-2185
-2185
-2184
-2197
-2207
-2211
-2200
-2197
-2201
-2200
-2194
-2174
-2156
-2149
-2135
-2120
-2092
-2073
-2061
-2048
-2033
-2008
-1992
-1994
-1981
-1976
-1946
-1945
-1939
-1937
-1928
-1915
-1910
-1917
-1914
-1915
-1894
-1907
-1905
-1905
-1892
-1869
-1857
-1848
-1827
-1801
-1761
-1737
-1703
-1670
-1625
-1578
-1542
-1510
-1469
-1424
-1375
-1344
-1306
-1268
-1218
-1169
-1135
-1099
-1060
-1009
-969
-938
-904
-868
-821
-777
-745
-707
-666
-611
-564
-519
-473
-419
-353
-291
-244
-181
-123
-42
13
72
129
191
259
317
362
419
468
539
572
617
655
701
751
786
815
851
889
936
966
1003
1041
1089
1142
1183
1224
1275
1335
1399
1445
1498
1551
1615
1676
1721
1767
1812
1870
1914
1948
1981
2015
2055
2089
2109
2129
2146
2173
2185
2193
2199
2210
2233
2247
2247
2264
2278
2315
2331
2353
2374
2405
2441
2469
2483
2510
2531
2574
2579
2596
2607
2626
2647
2655
2655
2660
2665
2676
2665
2657
2645
2640
2636
2617
2596
2585
2582
2582
2567
2561
2557
2566
2575
2570
2572
2576
2596
2603
2603
2604
2607
2617
2621
2612
2603
2591
2591
2572
2552
2529
2510
2501
2480
2443
2418
2387
2376
2342
2314
2287
2268
2260
2244
2219
2212
2203
2219
2203
2202
2198
2204
2215
2214
2208
2206
2204
2207
2187
2173
2154
2143
2133
2106
2077
2054
2037
2019
1982
1951
1919
1898
1877
1842
1815
1792
1788
1776
1760
1751
1748
1756
1763
1759
1760
1760
1777
1772
1770
1764
1763
1771
1768
1747
1737
1721
1721
1699
1678
1652
1631
1616
1589
1548
1523
1493
1487
1451
1427
1404
1393
1387
1373
1357
1351
1350
1358
1345
1341
1334
1338
1343
1332
1319
1310
1308
1304
1281
1262
1243
1233
1218
1187
1160
1132
1118
1093
1060
1030
1005
990
974
950
934
920
929
918
914
910
916
931
936
928
930
927
941
931
924
912
907
906
892
862
846
823
819
785
758
729
708
690
660
629
606
589
583
559
548
540
547
558
558
560
568
586
600
599
602
604
616
622
611
604
594
598
589
569
550
531
518
501
470
447
420
416
385
363
340
327
327
320
306
305
304
322
320
325
326
335
351
353
339
339
333
343
325
312
295
286
276
255
228
209
191
181
148
125
101
91
85
67
53
46
53
58
54
56
62
83
101
102
109
115
133
141
139
136
133
136
133
113
103
88
97
75
61
42
31
27
14
-9
-23
-38
-32
-50
-56
-65
-61
-48
-45
-52
-41
-32
-9
-10
-5
-4
5
15
11
0
-3
-4
1
-17
-28
-39
-40
-41
-58
-76
-89
-93
-101
-122
-136
-146
-144
-144
-157
-162
-165
-152
-146
-147
-142
-134
-116
-103
-105
-96
-92
-65
-69
-68
-71
-68
-60
-62
-74
-79
-88
-79
-101
-114
-134
-145
-149
-165
-190
-199
-207
-200
-211
-214
-215
-204
-190
-185
-181
-169
-153
-131
-129
-118
-109
-91
-75
-75
-74
-71
-56
-50
-55
-56
-56
-46
-42
-53
-60
-68
-64
-66
-73
-78
-77
-64
-54
-59
-48
-42
-8
-2
12
24
42
66
82
87
98
103
127
116
116
108
110
118
111
94
87
78
79
60
46
29
23
20
8
-7
-10
-5
7
3
9
16
35
57
63
72
84
108
122
126
132
138
154
164
159
156
152
158
154
143
130
119
117
106
76
62
43
50
30
17
3
-4
-5
-16
-39
-55
-80
-90
-143
-192
-255
-318
-384
-473
-578
-684
-797
-905
-1037
-1166
-1300
-1426
-1550
-1687
-1829
-1964
-2095
-2224
-2370
-2508
-2643
-2764
-2880
-3007
-3127
-3244
-3348
-3465
-3591
-3715
-3836
-3947
-4062
-4190
-4312
-4433
-4540
-4658
-4774
-4882
-4974
-5042
-5102
-5160
-5182
-5190
-5152
-5119
-5057
-4970
-4847
-4683
-4489
-4265
-3987
-3672
-3292
-2909
-2475
-2009
-1494
-937
-357
243
869
1506
2154
2782
3410
4025
4633
5222
5778
6310
6825
7321
7792
8217
8622
9004
9376
9727
10042
10342
10623
10895
11131
11332
11506
11651
11774
11862
11905
11920
11904
11874
11801
11699
11569
11419
11256
11062
10828
10586
10318
10052
9747
9431
9103
8773
8441
8093
7727
7370
7005
6661
6280
5913
5544
5191
4847
4499
4153
3821
3500
3196
2883
2588
2303
2038
1785
1527
1275
1037
816
605
384
177
-22
-203
-377
-559
-730
-892
-1032
-1177
-1323
-1459
-1586
-1698
-1806
-1918
-2020
-2114
-2184
-2266
-2338
-2406
-2459
-2494
-2531
-2577
-2603
-2628
-2631
-2651
-2665
-2679
-2685
-2683
-2691
-2712
-2717
-2729
-2716
-2738
-2747
-2760
-2764
-2766
-2781
-2802
-2819
-2834
-2841
-2867
-2884
-2900
-2903
-2900
-2909
-2916
-2914
-2900
-2881
-2875
-2860
-2843
-2813
-2785
-2773
-2755
-2738
-2707
-2690
-2681
-2671
-2660
-2642
-2630
-2631
-2629
-2630
-2614
-2622
-2628
-2638
-2640
-2631
-2630
-2640
-2635
-2631
-2606
-2599
-2585
-2571
-2547
-2514
-2488
-2476
-2446
-2420
-2373
-2358
-2333
-2313
-2285
-2256
-2241
-2232
-2220
-2206
-2186
-2190
-2187
-2187
-2178
-2170
-2177
-2186
-2191
-2187
-2182
-2190
-2191
-2188
-2171
-2153
-2149
-2135
-2120
-2086
-2062
-2045
-2026
-2004
-1975
-1950
-1939
-1926
-1917
-1890
-1893
-1894
-1899
-1899
-1891
-1895
-1912
-1920
-1933
-1929
-1948
-1962
-1978
-1985
-1983
-1989
-2006
-2003
-2000
-1973
-1970
-1955
-1940
-1913
-1884
-1865
-1849
-1827
-1802
-1771
-1764
-1750
-1739
-1720
-1701
-1700
-1700
-1697
-1685
-1677
-1684
-1686
-1688
-1677
-1671
-1680
-1682
-1681
-1663
-1653
-1647
-1635
-1617
-1589
-1561
-1544
-1517
-1495
-1451
-1438
-1419
-1405
-1384
-1358
-1344
-1345
-1340
-1342
-1329
-1343
-1351
-1366
-1373
-1373
-1387
-1414
-1426
-1441
-1439
-1459
-1470
-1480
-1478
-1471
-1471
-1472
-1462
-1446
-1419
-1412
-1394
-1379
-1354
-1330
-1324
-1319
-1312
-1299
-1292
-1300
-1307
-1314
-1313
-1317
-1339
-1357
-1376
-1382
-1398
-1422
-1443
-1462
-1472
-1483
-1507
-1518
-1530
-1514
-1525
-1526
-1527
-1519
-1501
-1491
-1491
-1485
-1485
-1469
-1483
-1489
-1503
-1509
-1510
-1527
-1558
-1576
-1598
-1607
-1638
-1663
-1691
-1711
-1728
-1755
-1784
-1804
-1817
-1822
-1845
-1857
-1868
-1866
-1862
-1870
-1875
-1874
-1861
-1853
-1858
-1860
-1860
-1851
-1847
-1861
-1871
-1882
-1881
-1888
-1903
-1917
-1929
-1933
-1942
-1968
-1982
-2001
-1995
-2018
-2033
-2049
-2057
-2056
-2061
-2074
-2077
-2080
-2063
-2075
-2074
-2076
-2067
-2051
-2048
-2055
-2051
-2048
-2035
-2043
-2045
-2050
-2046
-2040
-2045
-2053
-2053
-2047
-2036
-2046
-2049
-2053
-2046
-2039
-2047
-2051
-2049
-2034
-2024
-2023
-2017
-2006
-1983
-1962
-1953
-1936
-1918
-1887
-1863
-1847
-1831
-1812
-1785
-1766
-1764
-1749
-1739
-1705
-1699
-1686
-1675
-1657
-1634
-1620
-1617
-1604
-1594
-1563
-1563
-1548
-1537
-1514
-1482
-1462
-1447
-1420
-1390
-1348
-1321
-1287
-1254
-1210
-1162
-1126
-1091
-1048
-1000
-947
-914
-874
-833
-782
-730
-694
-656
-614
-562
-520
-490
-456
-421
-374
-330
-297
-257
-216
-159
-111
-66
-19
33
97
156
198
255
306
382
430
482
532
588
648
699
738
788
832
897
926
967
1000
1041
1086
1116
1138
1166
1195
1233
1252
1278
1303
1340
1379
1407
1433
1468
1511
1558
1587
1623
1660
1708
1754
1783
1814
1846
1890
1921
1942
1964
1986
2017
2041
2051
2062
2071
2090
2094
2094
2093
2097
2112
2120
2112
2121
2125
2155
2161
2174
2187
2209
2237
2257
2266
2289
2307
2348
2353
2372
2385
2408
2434
2446
2452
2462
2473
2491
2487
2489
2486
2491
2498
2490
2480
2478
2483
2493
2486
2488
2494
2512
2532
2538
2549
2561
2587
2600
2606
2613
2622
2637
2647
2642
2637
2630
2634
2619
2601
2578
2558
2547
2525
2486
2460
2428
2416
2381
2351
2321
2299
2286
2266
2236
2225
2211
2224
2204
2198
2189
2189
2193
2184
2171
2163
2155
2155
2133
2117
2098
2086
2076
2049
2019
1994
1975
1956
1918
1886
1854
1834
1814
1779
1752
1728
1723
1709
1690
1676
1668
1670
1672
1662
1656
1649
1658
1647
1635
1620
1610
1609
1596
1567
1550
1525
1518
1488
1460
1427
1400
1378
1345
1298
1268
1234
1225
1186
1160
1134
1121
1114
1100
1085
1079
1079
1086
1073
1068
1059
1062
1065
1052
1037
1027
1024
1019
997
978
958
949
936
904
877
848
836
812
781
756
736
726
715
695
683
674
687
678
676
673
678
694
699
691
692
689
701
690
682
668
660
657
642
611
595
573
569
534
508
478
458
439
412
383
363
349
345
323
313
306
312
321
317
313
314
323
329
318
311
301
298
289
259
231
195
168
121
58
-14
-93
-178
-276
-399
-522
-654
-768
-912
-1051
-1194
-1328
-1448
-1575
-1708
-1827
-1944
-2039
-2151
-2254
-2355
-2446
-2529
-2626
-2741
-2843
-2953
-3050
-3181
-3312
-3450
-3580
-3709
-3849
-3992
-4125
-4250
-4358
-4478
-4577
-4662
-4719
-4754
-4780
-4776
-4733
-4644
-4519
-4367
-4168
-3925
-3627
-3288
-2922
-2507
-2049
-1534
-986
-407
210
863
1550
2252
2955
3677
4397
5134
5832
6521
7188
7838
8467
9054
9597
10115
10601
11076
11500
11909
12298
12682
13060
13407
13723
14033
14313
14580
14791
14973
15112
15216
15276
15280
15236
15155
15034
14876
14655
14403
14113
13798
13448
13050
12621
12172
11711
11230
10725
10217
9705
9202
8696
8178
7672
7173
6695
6216
5740
5276
4824
4389
3961
3530
3121
2718
2351
1968
1604
1249
913
596
282
-29
-317
-594
-838
-1095
-1328
-1551
-1750
-1927
-2104
-2278
-2424
-2560
-2670
-2790
-2893
-2988
-3067
-3136
-3210
-3283
-3344
-3398
-3444
-3507
-3558
-3606
-3639
-3668
-3708
-3744
-3772
-3785
-3802
-3827
-3845
-3857
-3856
-3856
-3868
-3871
-3873
-3860
-3852
-3849
-3843
-3831
-3808
-3789
-3785
-3766
-3752
-3711
-3701
-3684
-3671
-3652
-3628
-3612
-3607
-3593
-3583
-3552
-3552
-3538
-3529
-3509
-3481
-3466
-3461
-3446
-3431
-3406
-3400
-3389
-3380
-3362
-3340
-3331
-3325
-3310
-3289
-3262
-3255
-3240
-3224
-3197
-3171
-3161
-3149
-3135
-3107
-3089
-3081
-3069
-3054
-3027
-3004
-2995
-2982
-2969
-2943
-2926
-2916
-2907
-2894
-2872
-2857
-2858
-2844
-2836
-2802
-2796
-2783
-2771
-2751
-2725
-2706
-2697
-2676
-2659
-2621
-2617
-2602
-2592
-2572
-2547
-2536
-2534
-2522
-2510
-2488
-2484
-2473
-2465
-2448
-2430
-2427
-2428
-2423
-2412
-2398
-2402
-2398
-2394
-2377
-2360
-2356
-2349
-2338
-2312
-2294
-2283
-2267
-2249
-2221
-2197
-2186
-2173
-2161
-2138
-2127
-2120
-2114
-2104
-2085
-2074
-2080
-2073
-2074
-2054
-2062
-2066
-2075
-2078
-2076
-2080
-2096
-2100
-2107
-2091
-2109
-2112
-2118
-2112
-2098
-2095
-2098
-2092
-2085
-2068
-2070
-2065
-2064
-2052
-2039
-2039
-2042
-2038
-2028
-2015
-2021
-2020
-2022
-2015
-2011
-2025
-2037
-2048
-2043
-2050
-2063
-2073
-2079
-2074
-2070
-2077
-2078
-2078
-2063
-2060
-2059
-2058
-2052
-2034
-2025
-2032
-2027
-2028
-2009
-2015
-2017
-2022
-2020
-2012
-2014
-2030
-2033
-2043
-2032
-2058
-2072
-2091
-2098
-2100
-2113
-2130
-2139
-2144
-2139
-2152
-2157
-2161
-2153
-2144
-2147
-2152
-2150
-2139
-2126
-2132
-2132
-2131
-2121
-2112
-2120
-2124
-2128
-2117
-2119
-2131
-2142
-2152
-2155
-2163
-2183
-2199
-2214
-2213
-2226
-2237
-2247
-2250
-2240
-2238
-2249
-2244
-2243
-2220
-2218
-2211
-2204
-2191
-2172
-2163
-2168
-2160
-2159
-2136
-2149
-2152
-2159
-2158
-2156
-2167
-2185
-2199
-2212
-2219
-2246
-2265
-2284
-2290
-2291
-2303
-2313
-2314
-2303
-2289
-2289
-2281
-2272
-2250
-2231
-2227
-2217
-2208
-2183
-2172
-2169
-2165
-2160
-2148
-2140
-2144
-2146
-2149
-2137
-2149
-2159
-2173
-2181
-2178
-2183
-2201
-2204
-2209
-2192
-2194
-2189
-2183
-2167
-2141
-2124
-2119
-2097
-2081
-2042
-2034
-2016
-2002
-1978
-1953
-1940
-1931
-1918
-1903
-1882
-1884
-1879
-1877
-1866
-1854
-1857
-1861
-1859
-1846
-1832
-1830
-1820
-1804
-1773
-1740
-1719
-1688
-1652
-1597
-1551
-1511
-1467
-1420
-1363
-1309
-1266
-1219
-1173
-1108
-1070
-1026
-986
-940
-885
-840
-808
-767
-731
-678
-646
-608
-572
-527
-473
-427
-393
-338
-286
-209
-159
-95
-31
44
121
188
250
319
390
467
522
584
642
710
777
827
875
925
982
1035
1070
1108
1145
1192
1235
1263
1298
1334
1386
1430
1468
1512
1561
1621
1681
1732
1792
1847
1925
1973
2026
2075
2130
2191
2241
2277
2319
2355
2405
2429
2455
2474
2499
2528
2542
2541
2554
2561
2586
2586
2595
2602
2619
2640
2651
2662
2682
2708
2743
2759
2782
2803
2834
2863
2876
2885
2897
2916
2928
2924
2921
2916
2921
2919
2898
2881
2861
2853
2834
2805
2777
2753
2738
2723
2695
2679
2662
2671
2653
2645
2637
2639
2652
2657
2651
2654
2653
2669
2658
2652
2640
2636
2637
2622
2592
2576
2554
2545
2512
2484
2450
2424
2397
2358
2316
2283
2256
2239
2204
2182
2162
2156
2153
2138
2126
2122
2131
2135
2127
2124
2122
2130
2132
2117
2105
2091
2087
2074
2051
2028
2006
1991
1969
1930
1902
1867
1856
1813
1779
1744
1719
1703
1682
1654
1638
1622
1628
1608
1600
1589
1588
1595
1588
1571
1566
1557
1560
1539
1521
1500
1484
1469
1442
1410
1385
1364
1347
1309
1276
1242
1219
1197
1161
1129
1104
1094
1081
1061
1048
1038
1043
1045
1037
1033
1030
1040
1041
1034
1027
1021
1020
1012
984
967
942
939
906
878
847
822
802
775
736
707
674
664
625
601
576
566
567
559
546
548
552
569
569
574
576
588
601
599
592
590
591
593
574
559
542
534
525
501
478
458
451
435
411
389
373
369
363
347
338
333
343
349
352
358
371
394
409
406
417
420
447
444
445
442
445
452
450
435
430
419
431
409
399
385
383
386
378
364
361
361
372
367
370
375
392
413
423
432
450
474
499
505
516
524
542
557
554
551
549
559
556
542
530
519
517
511
491
474
458
455
442
427
413
407
412
412
398
402
402
429
432
442
451
465
485
496
493
501
502
524
510
507
497
497
499
488
469
458
447
443
420
404
388
383
380
367
354
350
357
369
366
372
381
402
423
430
440
452
477
488
489
491
492
501
504
495
487
479
483
473
460
446
436
436
427
402
393
379
389
378
372
366
370
382
388
382
393
400
433
429
439
443
456
471
473
468
467
467
473
459
451
441
440
440
425
408
397
392
388
368
355
343
345
347
336
331
330
347
353
354
360
371
391
408
413
420
426
446
445
443
437
435
442
438
419
412
400
406
390
375
356
343
335
317
286
273
256
264
241
233
223
226
234
233
229
233
240
254
248
249
247
254
260
251
238
229
228
225
206
191
176
171
162
135
112
89
82
63
38
19
4
1
-3
-16
-21
-25
-9
-13
-12
-12
-5
13
20
14
18
17
31
23
18
7
2
3
-8
-33
-43
-59
-56
-86
-107
-132
-147
-160
-182
-205
-219
-227
-224
-239
-243
-246
-236
-222
-220
-218
-211
-195
-179
-178
-172
-167
-152
-142
-150
-154
-159
-149
-152
-164
-173
-180
-180
-183
-198
-207
-216
-202
-213
-215
-218
-210
-189
-175
-170
-153
-138
-104
-93
-77
-66
-47
-22
-11
-17
-9
-8
10
-2
-8
-18
-21
-23
-36
-55
-69
-80
-85
-111
-128
-146
-151
-152
-165
-175
-175
-163
-150
-148
-140
-128
-104
-83
-78
-66
-55
-30
-15
-11
-7
-2
7
11
-1
-6
-17
-6
-26
-40
-59
-71
-74
-87
-109
-121
-134
-127
-142
-145
-149
-140
-120
-111
-112
-96
-84
-55
-52
-43
-36
-22
-9
-9
-15
-15
-13
-6
-23
-34
-47
-50
-54
-72
-90
-104
-107
-113
-129
-138
-144
-135
-127
-131
-125
-116
-91
-71
-57
-41
-22
3
24
28
41
48
78
74
77
74
76
85
83
69
62
52
58
37
24
7
1
4
-4
-21
-21
-19
0
0
10
20
41
66
80
90
107
126
149
150
156
159
170
180
173
166
162
167
164
148
134
121
118
111
89
73
60
61
58
48
43
44
57
68
65
78
88
124
130
143
151
165
184
192
187
189
185
199
181
173
159
153
154
140
115
102
87
84
62
47
34
33
37
31
25
30
42
63
66
78
91
116
139
148
156
167
187
196
193
191
189
197
200
188
181
174
180
178
168
161
157
164
166
154
160
163
193
196
209
220
239
265
283
291
307
316
345
339
342
338
341
347
338
318
307
295
291
268
251
231
222
214
194
169
152
141
135
113
99
88
89
93
83
77
75
88
92
89
87
88
97
102
93
86
78
81
73
59
45
36
36
29
4
-6
-22
-16
-38
-55
-73
-84
-88
-98
-117
-122
-130
-114
-130
-132
-137
-131
-117
-116
-121
-118
-114
-100
-105
-104
-106
-98
-90
-95
-103
-105
-101
-94
-106
-113
-121
-119
-118
-133
-146
-156
-150
-154
-165
-171
-174
-164
-156
-159
-156
-152
-134
-129
-128
-127
-122
-108
-104
-118
-118
-126
-112
-123
-131
-142
-147
-146
-153
-174
-183
-197
-189
-216
-229
-244
-248
-245
-251
-259
-257
-250
-233
-233
-223
-214
-196
-176
-169
-166
-156
-139
-122
-123
-119
-115
-101
-88
-92
-93
-93
-81
-82
-92
-102
-110
-109
-113
-127
-137
-146
-139
-147
-153
-158
-155
-139
-130
-135
-124
-119
-95
-93
-88
-85
-76
-62
-58
-67
-62
-63
-41
-56
-60
-69
-69
-67
-78
-94
-105
-112
-112
-131
-143
-156
-157
-155
-166
-175
-176
-169
-159
-166
-170
-177
-176
-183
-214
-248
-290
-327
-387
-465
-551
-647
-745
-855
-984
-1116
-1254
-1379
-1527
-1673
-1820
-1957
-2081
-2211
-2352
-2475
-2595
-2691
-2804
-2909
-3012
-3103
-3183
-3275
-3382
-3477
-3582
-3667
-3790
-3904
-4024
-4133
-4239
-4354
-4473
-4583
-4686
-4772
-4866
-4938
-4991
-5014
-5016
-5011
-4988
-4937
-4854
-4744
-4616
-4445
-4234
-3968
-3661
-3327
-2944
-2521
-2049
-1558
-1043
-495
80
683
1299
1913
2533
3146
3769
4352
4918
5457
5978
6487
6963
7404
7834
8237
8635
8991
9332
9654
9973
10289
10580
10841
11096
11319
11533
11689
11826
11929
12008
12054
12057
12025
11970
11892
11798
11662
11514
11348
11175
10985
10759
10510
10245
9968
9670
9343
9007
8663
8320
7968
7595
7226
6858
6507
6149
5788
5435
5090
4759
4434
4103
3787
3476
3194
2893
2606
2324
2056
1805
1553
1297
1059
826
620
398
191
-13
-202
-376
-557
-743
-906
-1065
-1198
-1349
-1484
-1612
-1722
-1821
-1924
-2021
-2103
-2173
-2229
-2299
-2357
-2411
-2449
-2481
-2525
-2567
-2602
-2625
-2650
-2687
-2719
-2749
-2767
-2787
-2822
-2852
-2883
-2900
-2926
-2960
-2990
-3016
-3032
-3050
-3078
-3096
-3113
-3105
-3124
-3134
-3145
-3145
-3134
-3131
-3136
-3131
-3128
-3107
-3110
-3105
-3105
-3095
-3077
-3073
-3080
-3072
-3068
-3048
-3051
-3049
-3050
-3044
-3036
-3040
-3048
-3046
-3039
-3023
-3026
-3018
-3009
-2986
-2961
-2949
-2934
-2913
-2881
-2852
-2836
-2816
-2795
-2761
-2733
-2721
-2703
-2687
-2659
-2639
-2629
-2618
-2606
-2588
-2577
-2582
-2578
-2580
-2558
-2567
-2568
-2572
-2568
-2554
-2547
-2549
-2539
-2531
-2502
-2499
-2486
-2477
-2457
-2430
-2416
-2413
-2396
-2381
-2354
-2349
-2339
-2333
-2318
-2302
-2299
-2300
-2295
-2286
-2274
-2284
-2286
-2290
-2284
-2278
-2287
-2293
-2294
-2282
-2274
-2275
-2269
-2260
-2236
-2215
-2207
-2192
-2178
-2151
-2132
-2121
-2109
-2094
-2071
-2053
-2052
-2039
-2034
-2005
-2008
-2005
-2006
-2002
-1992
-1993
-2005
-2009
-2015
-2001
-2017
-2020
-2027
-2022
-2008
-2004
-2008
-1997
-1984
-1958
-1950
-1937
-1926
-1906
-1884
-1875
-1870
-1857
-1840
-1819
-1820
-1814
-1810
-1797
-1786
-1792
-1798
-1804
-1799
-1805
-1823
-1837
-1849
-1850
-1854
-1870
-1881
-1889
-1883
-1883
-1887
-1886
-1880
-1864
-1853
-1859
-1850
-1848
-1820
-1822
-1818
-1816
-1808
-1793
-1787
-1793
-1790
-1794
-1778
-1799
-1808
-1824
-1832
-1834
-1849
-1871
-1881
-1890
-1889
-1904
-1911
-1918
-1913
-1903
-1905
-1906
-1899
-1884
-1865
-1865
-1858
-1851
-1835
-1820
-1822
-1822
-1821
-1808
-1806
-1814
-1820
-1826
-1823
-1828
-1848
-1867
-1887
-1895
-1912
-1933
-1953
-1967
-1970
-1979
-2003
-2010
-2020
-2005
-2012
-2013
-2014
-2007
-1994
-1988
-1994
-1989
-1991
-1969
-1985
-1988
-1998
-1998
-1994
-2004
-2021
-2032
-2044
-2049
-2074
-2094
-2118
-2131
-2141
-2161
-2182
-2192
-2193
-2188
-2197
-2197
-2194
-2176
-2157
-2153
-2145
-2134
-2108
-2094
-2088
-2080
-2071
-2055
-2043
-2045
-2043
-2042
-2028
-2027
-2031
-2037
-2041
-2036
-2043
-2067
-2077
-2091
-2082
-2095
-2102
-2109
-2107
-2097
-2094
-2101
-2091
-2084
-2053
-2056
-2045
-2038
-2020
-1997
-1987
-1984
-1975
-1966
-1950
-1955
-1954
-1955
-1946
-1936
-1941
-1949
-1951
-1946
-1939
-1949
-1951
-1952
-1938
-1924
-1921
-1909
-1892
-1855
-1826
-1801
-1770
-1732
-1684
-1638
-1602
-1562
-1521
-1465
-1426
-1388
-1353
-1312
-1263
-1224
-1202
-1168
-1140
-1093
-1069
-1043
-1020
-990
-954
-928
-914
-883
-854
-798
-773
-731
-688
-632
-569
-513
-458
-396
-330
-255
-198
-133
-69
5
80
141
199
262
331
399
448
502
554
616
674
713
755
796
851
894
930
970
1015
1070
1124
1169
1221
1272
1343
1394
1448
1498
1555
1622
1679
1720
1772
1816
1877
1914
1953
1985
2022
2063
2090
2102
2128
2145
2182
2184
2197
2206
2223
2244
2256
2264
2279
2299
2330
2342
2365
2388
2425
2464
2489
2512
2540
2575
2609
2627
2648
2667
2695
2717
2721
2728
2733
2751
2754
2748
2741
2735
2734
2729
2711
2698
2685
2693
2677
2668
2659
2660
2675
2683
2683
2697
2710
2741
2750
2762
2771
2785
2807
2814
2806
2813
2813
2832
2819
2813
2802
2797
2791
2771
2745
2723
2703
2689
2653
2626
2599
2583
2571
2547
2526
2514
2513
2514
2503
2500
2501
2513
2523
2516
2514
2511
2521
2519
2506
2494
2482
2477
2465
2439
2417
2389
2382
2345
2313
2277
2249
2230
2203
2167
2142
2116
2110
2084
2068
2049
2042
2046
2040
2024
2024
2021
2034
2021
2013
2001
1995
1989
1970
1944
1924
1906
1893
1857
1829
1797
1774
1750
1711
1673
1640
1618
1595
1561
1535
1513
1506
1498
1477
1466
1458
1466
1469
1465
1463
1463
1470
1472
1458
1452
1438
1446
1422
1403
1379
1361
1348
1325
1290
1262
1228
1212
1170
1137
1101
1077
1063
1038
1005
991
977
982
968
963
959
967
979
980
978
983
991
1005
996
992
985
987
987
971
953
938
933
923
899
879
859
851
839
813
795
780
781
775
765
759
758
768
776
770
777
780
806
802
802
798
799
803
797
777
763
743
741
708
685
656
636
623
595
558
532
505
491
457
432
407
394
385
367
349
340
339
344
331
327
323
328
333
321
310
302
303
296
277
260
243
237
226
200
179
158
150
134
111
88
70
62
49
21
11
-3
13
2
0
-2
4
18
25
21
24
21
38
22
16
2
-2
-1
-14
-38
-52
-67
-71
-94
-111
-129
-138
-144
-161
-181
-193
-198
-198
-215
-224
-232
-228
-222
-230
-235
-236
-223
-221
-232
-242
-253
-260
-277
-316
-359
-412
-465
-540
-635
-744
-862
-981
-1118
-1280
-1434
-1602
-1750
-1930
-2107
-2286
-2455
-2614
-2778
-2951
-3110
-3268
-3399
-3560
-3703
-3849
-3983
-4113
-4257
-4409
-4552
-4693
-4825
-4975
-5117
-5258
-5381
-5492
-5601
-5694
-5757
-5793
-5801
-5805
-5778
-5724
-5632
-5511
-5370
-5187
-4959
-4671
-4348
-3987
-3578
-3124
-2620
-2080
-1510
-898
-253
435
1137
1860
2603
3366
4145
4913
5652
6386
7089
7786
8424
9032
9598
10134
10641
11109
11538
11957
12354
12763
13129
13502
13860
14214
14555
14862
15139
15392
15611
15795
15914
15989
16010
15990
15920
15784
15596
15370
15106
14803
14441
14048
13619
13172
12699
12191
11673
11145
10624
10086
9538
8995
8459
7937
7419
6899
6393
5899
5430
4958
4498
4050
3622
3221
2827
2432
2065
1706
1382
1049
735
432
150
-111
-366
-618
-840
-1053
-1228
-1425
-1597
-1763
-1909
-2042
-2179
-2313
-2434
-2544
-2640
-2748
-2842
-2933
-3008
-3075
-3151
-3225
-3286
-3334
-3375
-3429
-3472
-3510
-3533
-3553
-3585
-3608
-3627
-3626
-3636
-3650
-3660
-3665
-3660
-3657
-3665
-3672
-3681
-3676
-3691
-3707
-3725
-3738
-3739
-3750
-3775
-3784
-3796
-3787
-3798
-3804
-3809
-3804
-3791
-3785
-3789
-3775
-3765
-3729
-3725
-3708
-3694
-3667
-3636
-3615
-3598
-3575
-3549
-3516
-3505
-3488
-3476
-3457
-3439
-3436
-3436
-3430
-3417
-3404
-3407
-3404
-3400
-3383
-3367
-3365
-3355
-3343
-3315
-3296
-3282
-3264
-3242
-3210
-3181
-3162
-3138
-3116
-3074
-3054
-3032
-3013
-2988
-2954
-2933
-2928
-2914
-2909
-2888
-2891
-2892
-2896
-2893
-2883
-2882
-2894
-2888
-2885
-2859
-2861
-2851
-2842
-2822
-2797
-2781
-2768
-2748
-2724
-2690
-2677
-2654
-2634
-2603
-2572
-2556
-2543
-2527
-2505
-2487
-2487
-2485
-2485
-2475
-2469
-2481
-2486
-2491
-2479
-2478
-2482
-2482
-2476
-2460
-2445
-2440
-2428
-2417
-2384
-2375
-2359
-2345
-2324
-2291
-2268
-2258
-2237
-2222
-2190
-2182
-2170
-2164
-2152
-2134
-2132
-2146
-2146
-2152
-2138
-2153
-2158
-2164
-2160
-2153
-2154
-2158
-2153
-2142
-2123
-2124
-2116
-2109
-2090
-2069
-2062
-2056
-2044
-2023
-2005
-2001
-1992
-1985
-1967
-1955
-1962
-1966
-1974
-1969
-1977
-1994
-2011
-2024
-2031
-2042
-2064
-2076
-2090
-2078
-2095
-2102
-2109
-2106
-2094
-2089
-2093
-2086
-2080
-2056
-2055
-2046
-2042
-2028
-2006
-1998
-2005
-1997
-1995
-1979
-1991
-1998
-2010
-2014
-2016
-2031
-2050
-2062
-2070
-2072
-2092
-2103
-2113
-2110
-2105
-2111
-2114
-2111
-2096
-2083
-2082
-2074
-2064
-2041
-2022
-2016
-2004
-1992
-1966
-1950
-1943
-1936
-1929
-1916
-1910
-1921
-1923
-1931
-1915
-1931
-1940
-1951
-1954
-1949
-1951
-1962
-1963
-1965
-1947
-1953
-1949
-1949
-1938
-1918
-1912
-1917
-1908
-1903
-1885
-1889
-1889
-1890
-1883
-1876
-1882
-1894
-1900
-1905
-1906
-1929
-1946
-1966
-1974
-1982
-2003
-2022
-2035
-2035
-2039
-2052
-2058
-2061
-2048
-2037
-2040
-2036
-2032
-2013
-2001
-1998
-1993
-1985
-1969
-1958
-1963
-1956
-1955
-1930
-1938
-1941
-1949
-1952
-1950
-1958
-1977
-1987
-2001
-1994
-2016
-2024
-2037
-2037
-2028
-2029
-2037
-2031
-2023
-2002
-1998
-1987
-1976
-1955
-1932
-1921
-1914
-1899
-1880
-1856
-1851
-1839
-1828
-1807
-1786
-1782
-1778
-1771
-1754
-1744
-1745
-1741
-1734
-1712
-1693
-1683
-1666
-1644
-1608
-1576
-1548
-1515
-1475
-1423
-1375
-1342
-1293
-1248
-1176
-1134
-1085
-1038
-984
-924
-873
-832
-782
-738
-674
-646
-608
-578
-540
-496
-466
-444
-410
-375
-328
-297
-257
-217
-164
-106
-57
-9
48
112
181
233
292
351
421
489
542
595
650
716
771
815
861
905
958
1003
1032
1062
1091
1131
1163
1189
1216
1247
1290
1328
1352
1392
1429
1491
1530
1575
1618
1669
1726
1777
1817
1868
1912
1978
2006
2046
2078
2118
2162
2190
2209
2234
2257
2285
2292
2302
2309
2325
2343
2349
2352
2366
2387
2414
2425
2444
2466
2500
2535
2554
2577
2603
2642
2670
2688
2708
2729
2758
2781
2790
2800
2807
2826
2829
2826
2819
2814
2817
2809
2782
2769
2751
2754
2735
2723
2711
2708
2714
2713
2702
2707
2707
2730
2719
2720
2717
2723
2733
2729
2719
2713
2706
2705
2683
2664
2641
2626
2611
2580
2545
2515
2490
2467
2425
2390
2357
2337
2317
2284
2258
2236
2233
2220
2203
2191
2183
2185
2185
2173
2165
2158
2165
2156
2145
2133
2125
2128
2119
2093
2079
2058
2055
2027
2001
1972
1950
1935
1911
1877
1859
1837
1842
1815
1803
1792
1794
1803
1804
1801
1806
1814
1830
1827
1832
1834
1845
1857
1854
1848
1847
1851
1854
1838
1826
1811
1805
1794
1765
1740
1714
1705
1685
1660
1640
1624
1619
1614
1601
1593
1587
1601
1595
1592
1587
1588
1599
1599
1585
1581
1573
1583
1570
1561
1546
1538
1534
1517
1484
1464
1438
1433
1394
1365
1333
1312
1294
1267
1239
1220
1206
1203
1182
1173
1164
1169
1177
1172
1165
1165
1172
1178
1167
1159
1151
1153
1151
1132
1119
1105
1105
1093
1070
1048
1028
1015
999
971
950
929
929
908
894
879
875
883
883
872
874
873
890
885
885
880
882
888
882
860
854
840
846
820
803
782
769
757
732
702
676
654
640
605
581
559
550
546
531
518
514
522
530
525
527
531
545
556
550
550
547
558
554
539
524
508
496
479
448
420
389
378
337
302
264
233
214
187
151
129
107
107
88
80
71
73
86
89
80
87
90
110
102
101
95
96
96
83
65
51
38
32
4
-17
-39
-52
-64
-91
-118
-140
-148
-158
-177
-188
-194
-185
-176
-181
-176
-170
-146
-132
-126
-119
-109
-92
-80
-85
-83
-88
-71
-88
-99
-115
-124
-126
-137
-161
-177
-196
-199
-226
-245
-265
-274
-273
-282
-299
-297
-296
-274
-273
-262
-252
-232
-210
-199
-194
-181
-166
-147
-151
-149
-152
-147
-144
-159
-175
-188
-191
-201
-224
-243
-261
-267
-275
-297
-309
-319
-312
-310
-312
-309
-299
-279
-261
-256
-238
-226
-190
-185
-174
-168
-156
-140
-135
-143
-145
-152
-143
-163
-175
-193
-202
-204
-220
-246
-259
-272
-270
-287
-295
-303
-299
-290
-289
-288
-277
-260
-235
-229
-214
-202
-180
-159
-154
-150
-145
-130
-124
-132
-137
-142
-137
-138
-155
-167
-180
-182
-190
-206
-219
-227
-223
-221
-232
-226
-224
-192
-188
-173
-158
-133
-100
-73
-57
-32
-12
27
33
49
58
75
98
106
104
112
120
138
137
141
144
156
171
174
173
181
196
218
221
233
247
274
301
314
330
351
384
408
420
433
448
472
489
491
496
499
514
519
516
513
514
523
525
508
506
496
511
498
490
482
482
490
491
483
487
488
511
502
507
510
523
542
547
544
550
554
567
559
557
552
556
562
555
544
540
540
543
525
514
500
497
493
475
461
450
454
449
437
429
425
433
438
432
431
431
443
444
440
435
433
439
436
415
408
395
405
388
375
361
353
348
335
310
295
273
275
242
224
203
193
191
177
157
148
141
146
135
132
127
132
139
134
126
125
128
132
115
105
93
94
94
79
68
58
62
52
34
16
1
-3
-10
-27
-38
-47
-39
-42
-47
-51
-47
-32
-24
-31
-24
-21
3
5
9
11
18
31
33
21
22
17
32
11
1
-14
-21
-24
-41
-63
-78
-90
-91
-111
-120
-130
-126
-118
-122
-125
-120
-105
-88
-88
-79
-70
-49
-30
-29
-24
-20
-3
0
-6
-10
-12
-8
-9
-23
-37
-53
-55
-76
-97
-119
-133
-136
-145
-167
-171
-177
-160
-161
-156
-151
-138
-119
-110
-114
-104
-101
-75
-85
-83
-88
-85
-81
-91
-107
-118
-129
-135
-163
-183
-207
-220
-232
-257
-281
-296
-301
-301
-314
-318
-319
-306
-291
-290
-283
-274
-250
-239
-235
-230
-223
-209
-200
-203
-204
-209
-198
-211
-222
-237
-246
-247
-259
-286
-300
-318
-317
-334
-346
-357
-358
-349
-346
-353
-339
-327
-290
-282
-263
-247
-222
-195
-180
-170
-155
-140
-119
-122
-119
-120
-114
-108
-119
-133
-143
-146
-151
-172
-188
-202
-204
-205
-219
-225
-226
-209
-199
-193
-181
-164
-136
-110
-96
-77
-60
-25
-16
-4
4
17
39
49
45
51
50
65
56
50
39
34
35
25
1
-5
-12
4
-6
-3
2
18
41
55
69
92
119
153
166
186
205
233
261
272
280
291
308
319
314
310
305
307
304
282
265
246
241
227
207
193
183
184
184
174
175
176
202
203
214
223
239
264
278
279
286
288
303
291
282
267
258
254
236
204
186
162
154
119
92
61
41
25
1
-24
-38
-45
-41
-55
-57
-57
-44
-27
-21
-16
-5
16
31
31
33
34
44
48
34
24
14
16
6
-13
-31
-48
-59
-75
-105
-125
-149
-146
-171
-185
-199
-200
-191
-188
-192
-185
-179
-152
-151
-141
-138
-125
-106
-101
-110
-107
-109
-98
-113
-122
-134
-138
-142
-157
-176
-189
-198
-201
-224
-238
-253
-255
-254
-264
-272
-274
-264
-257
-262
-262
-262
-253
-252
-273
-295
-324
-349
-393
-456
-530
-611
-695
-793
-916
-1035
-1164
-1271
-1412
-1547
-1687
-1820
-1945
-2077
-2217
-2346
-2474
-2576
-2703
-2815
-2929
-3027
-3114
-3212
-3319
-3415
-3516
-3609
-3727
-3841
-3960
-4072
-4182
-4304
-4431
-4552
-4670
-4779
-4900
-5003
-5092
-5150
-5187
-5220
-5231
-5218
-5171
-5109
-5029
-4912
-4758
-4552
-4307
-4033
-3710
-3345
-2927
-2481
-2007
-1499
-956
-376
220
820
1446
2070
2716
3324
3923
4502
5065
5610
6126
6611
7083
7529
7973
8362
8742
9097
9445
9787
10103
10394
10675
10931
11170
11359
11523
11652
11758
11832
11860
11850
11819
11766
11691
11575
11446
11296
11138
10960
10746
10512
10257
9995
9705
9389
9064
8729
8396
8050
7683
7315
6945
6588
6224
5859
5498
5148
4814
4479
4134
3811
3490
3201
2893
2597
2307
2031
1768
1506
1240
992
749
535
295
77
-137
-332
-513
-699
-884
-1054
-1215
-1359
-1513
-1654
-1789
-1904
-2010
-2120
-2225
-2315
-2390
-2454
-2528
-2587
-2638
-2673
-2704
-2746
-2780
-2809
-2820
-2839
-2862
-2880
-2892
-2892
-2894
-2906
-2915
-2923
-2919
-2926
-2938
-2950
-2958
-2956
-2963
-2986
-2994
-3006
-2994
-3005
-3010
-3015
-3009
-2996
-2988
-2989
-2975
-2965
-2931
-2932
-2919
-2910
-2891
-2867
-2855
-2849
-2836
-2821
-2798
-2795
-2785
-2778
-2762
-2746
-2744
-2746
-2740
-2729
-2715
-2717
-2711
-2704
-2684
-2665
-2660
-2650
-2636
-2606
-2586
-2571
-2553
-2532
-2500
-2472
-2454
-2434
-2414
-2381
-2363
-2347
-2332
-2312
-2282
-2262
-2258
-2241
-2231
-2202
-2197
-2189
-2186
-2176
-2159
-2150
-2153
-2140
-2130
-2094
-2092
-2075
-2060
-2033
-1999
-1977
-1958
-1932
-1904
-1869
-1854
-1834
-1819
-1794
-1768
-1758
-1751
-1737
-1717
-1698
-1698
-1695
-1694
-1684
-1679
-1692
-1701
-1710
-1703
-1707
-1718
-1725
-1727
-1718
-1711
-1712
-1709
-1704
-1682
-1676
-1668
-1662
-1650
-1626
-1616
-1623
-1618
-1618
-1599
-1602
-1601
-1603
-1598
-1588
-1588
-1604
-1605
-1615
-1603
-1626
-1638
-1653
-1657
-1657
-1666
-1678
-1682
-1682
-1673
-1683
-1682
-1682
-1670
-1656
-1656
-1656
-1649
-1633
-1620
-1624
-1623
-1622
-1612
-1605
-1616
-1622
-1630
-1625
-1633
-1650
-1665
-1680
-1688
-1699
-1721
-1737
-1753
-1748
-1764
-1774
-1783
-1783
-1769
-1764
-1769
-1760
-1755
-1732
-1730
-1723
-1719
-1708
-1691
-1687
-1698
-1695
-1699
-1684
-1701
-1708
-1721
-1724
-1728
-1744
-1766
-1783
-1799
-1809
-1839
-1860
-1881
-1889
-1894
-1910
-1925
-1932
-1929
-1924
-1934
-1937
-1941
-1932
-1927
-1938
-1943
-1949
-1941
-1945
-1957
-1968
-1979
-1984
-1995
-2020
-2040
-2066
-2071
-2104
-2131
-2162
-2185
-2196
-2215
-2243
-2257
-2271
-2264
-2276
-2279
-2282
-2273
-2254
-2246
-2251
-2238
-2231
-2205
-2207
-2201
-2201
-2192
-2183
-2185
-2193
-2196
-2197
-2192
-2209
-2220
-2233
-2237
-2240
-2259
-2278
-2290
-2293
-2297
-2312
-2320
-2324
-2315
-2305
-2309
-2304
-2296
-2272
-2256
-2248
-2237
-2224
-2204
-2189
-2189
-2181
-2178
-2153
-2158
-2157
-2160
-2157
-2146
-2145
-2157
-2160
-2166
-2156
-2169
-2176
-2185
-2182
-2170
-2167
-2174
-2162
-2149
-2115
-2101
-2077
-2054
-2022
-1987
-1963
-1945
-1920
-1893
-1862
-1852
-1836
-1823
-1800
-1777
-1770
-1763
-1752
-1732
-1718
-1716
-1711
-1704
-1685
-1668
-1666
-1655
-1641
-1611
-1586
-1566
-1540
-1508
-1465
-1422
-1390
-1347
-1308
-1245
-1211
-1170
-1132
-1088
-1038
-997
-967
-930
-896
-845
-820
-788
-760
-722
-677
-644
-623
-586
-550
-498
-464
-419
-372
-312
-246
-188
-130
-62
14
98
162
234
305
385
464
526
587
649
721
784
834
887
939
1001
1057
1096
1139
1179
1230
1272
1306
1340
1377
1425
1469
1499
1544
1585
1655
1697
1748
1798
1857
1924
1983
2030
2085
2134
2200
2232
2271
2300
2336
2376
2398
2409
2429
2445
2470
2472
2478
2480
2490
2502
2501
2499
2506
2520
2541
2545
2559
2575
2605
2636
2652
2672
2696
2732
2758
2773
2789
2805
2830
2847
2846
2848
2846
2855
2853
2842
2831
2822
2821
2814
2787
2775
2755
2759
2736
2720
2703
2695
2695
2690
2676
2675
2671
2690
2677
2677
2672
2675
2684
2678
2661
2652
2640
2636
2610
2588
2562
2544
2526
2494
2458
2430
2407
2388
2348
2315
2281
2259
2237
2203
2173
2149
2141
2127
2106
2091
2078
2078
2074
2057
2043
2029
2027
2016
1999
1981
1967
1961
1947
1914
1896
1870
1868
1838
1813
1785
1764
1749
1725
1690
1667
1640
1636
1599
1578
1554
1543
1540
1525
1506
1497
1492
1496
1482
1475
1466
1467
1469
1457
1441
1432
1427
1423
1399
1382
1365
1358
1349
1324
1301
1279
1270
1249
1221
1194
1171
1159
1145
1121
1102
1086
1085
1074
1061
1050
1045
1051
1048
1027
1020
1007
1015
998
984
967
956
950
934
906
889
867
868
833
810
781
763
748
721
688
663
642
631
603
584
567
564
565
556
547
547
555
564
557
556
554
563
570
559
552
544
551
543
528
513
499
493
481
457
434
411
403
378
354
331
315
314
305
284
280
273
289
286
290
292
300
315
319
311
316
315
337
323
322
315
317
322
314
300
292
285
284
263
249
234
229
228
215
203
201
211
224
224
232
244
270
298
310
329
348
383
403
416
428
442
463
478
481
484
484
498
489
481
469
461
464
456
433
423
410
419
410
407
404
410
427
436
435
452
467
507
513
529
541
561
582
589
589
590
591
594
573
555
530
509
481
430
367
298
225
139
24
-96
-225
-348
-479
-632
-782
-934
-1072
-1222
-1380
-1534
-1684
-1827
-1975
-2137
-2295
-2454
-2595
-2763
-2930
-3104
-3276
-3441
-3619
-3810
-3991
-4175
-4342
-4529
-4708
-4884
-5045
-5186
-5319
-5445
-5532
-5599
-5619
-5642
-5625
-5579
-5488
-5358
-5198
-5000
-4752
-4458
-4112
-3745
-3331
-2880
-2381
-1842
-1280
-686
-57
610
1299
1995
2710
3433
4167
4886
5575
6250
6901
7541
8141
8704
9239
9752
10248
10722
11165
11601
12022
12457
12855
13244
13610
13961
14296
14593
14842
15060
15227
15359
15414
15422
15373
15277
15138
14936
14674
14386
14053
13700
13284
12844
12376
11895
11402
10887
10360
9836
9316
8806
8279
7768
7265
6780
6306
5827
5357
4902
4466
4037
3606
3191
2788
2408
2038
1663
1308
964
649
338
35
-252
-522
-768
-1003
-1235
-1443
-1639
-1796
-1967
-2115
-2253
-2370
-2467
-2562
-2658
-2737
-2812
-2863
-2936
-2997
-3059
-3111
-3152
-3206
-3270
-3319
-3371
-3407
-3465
-3514
-3563
-3600
-3633
-3673
-3714
-3745
-3769
-3783
-3815
-3835
-3853
-3857
-3857
-3869
-3877
-3877
-3865
-3856
-3858
-3855
-3849
-3833
-3821
-3826
-3826
-3826
-3813
-3810
-3814
-3817
-3816
-3806
-3800
-3808
-3803
-3801
-3773
-3775
-3767
-3760
-3745
-3720
-3703
-3694
-3675
-3658
-3622
-3613
-3593
-3578
-3551
-3516
-3494
-3484
-3461
-3441
-3409
-3399
-3384
-3372
-3352
-3330
-3318
-3311
-3296
-3276
-3250
-3244
-3230
-3218
-3194
-3170
-3162
-3152
-3138
-3112
-3092
-3083
-3070
-3054
-3025
-3000
-2989
-2972
-2954
-2924
-2899
-2883
-2865
-2845
-2817
-2796
-2790
-2772
-2761
-2725
-2719
-2706
-2695
-2678
-2653
-2637
-2631
-2616
-2606
-2575
-2576
-2566
-2561
-2546
-2523
-2514
-2514
-2503
-2492
-2469
-2465
-2454
-2444
-2424
-2400
-2388
-2380
-2362
-2340
-2312
-2303
-2287
-2270
-2242
-2213
-2199
-2181
-2161
-2127
-2103
-2089
-2073
-2055
-2029
-2007
-1998
-1985
-1972
-1947
-1931
-1920
-1908
-1891
-1863
-1842
-1837
-1815
-1798
-1755
-1740
-1718
-1700
-1674
-1643
-1620
-1609
-1588
-1571
-1533
-1530
-1514
-1504
-1485
-1462
-1454
-1457
-1453
-1451
-1443
-1455
-1461
-1469
-1468
-1464
-1472
-1480
-1480
-1472
-1458
-1462
-1456
-1449
-1430
-1409
-1404
-1396
-1386
-1363
-1353
-1352
-1348
-1342
-1327
-1316
-1319
-1319
-1321
-1312
-1316
-1327
-1340
-1351
-1354
-1366
-1394
-1406
-1423
-1416
-1432
-1443
-1454
-1456
-1450
-1450
-1461
-1458
-1459
-1437
-1450
-1450
-1455
-1451
-1442
-1448
-1461
-1466
-1471
-1468
-1486
-1497
-1512
-1519
-1526
-1549
-1575
-1595
-1608
-1617
-1643
-1661
-1678
-1681
-1683
-1699
-1710
-1717
-1709
-1709
-1716
-1721
-1722
-1713
-1707
-1713
-1717
-1721
-1713
-1719
-1728
-1739
-1745
-1741
-1747
-1770
-1780
-1798
-1796
-1820
-1841
-1866
-1883
-1893
-1911
-1939
-1951
-1966
-1955
-1977
-1983
-1991
-1986
-1974
-1972
-1974
-1969
-1960
-1942
-1943
-1938
-1934
-1920
-1904
-1903
-1905
-1901
-1890
-1879
-1886
-1889
-1892
-1887
-1885
-1900
-1912
-1923
-1918
-1924
-1936
-1942
-1943
-1931
-1919
-1915
-1905
-1894
-1866
-1855
-1843
-1832
-1814
-1785
-1766
-1763
-1747
-1736
-1707
-1702
-1694
-1690
-1680
-1665
-1661
-1673
-1671
-1676
-1658
-1675
-1679
-1686
-1682
-1672
-1670
-1670
-1660
-1644
-1618
-1608
-1588
-1568
-1536
-1501
-1479
-1459
-1430
-1393
-1356
-1335
-1307
-1279
-1240
-1204
-1185
-1160
-1136
-1097
-1071
-1053
-1032
-1009
-977
-948
-929
-904
-878
-832
-805
-771
-735
-689
-629
-575
-532
-475
-422
-350
-298
-242
-188
-127
-59
-2
41
98
148
218
255
301
343
393
443
479
511
548
587
635
663
699
736
785
840
882
927
980
1045
1111
1162
1219
1276
1343
1407
1454
1504
1552
1614
1662
1701
1739
1777
1821
1858
1880
1905
1925
1962
1972
1986
1996
2013
2041
2060
2069
2090
2109
2149
2169
2197
2224
2261
2305
2338
2357
2390
2418
2463
2477
2498
2514
2537
2560
2570
2574
2582
2591
2605
2595
2591
2583
2585
2588
2575
2564
2560
2568
2574
2569
2571
2577
2597
2617
2622
2636
2651
2681
2702
2714
2728
2742
2761
2772
2767
2767
2760
2774
2756
2743
2725
2711
2704
2685
2652
2627
2597
2583
2547
2519
2489
2470
2461
2442
2414
2405
2394
2403
2389
2386
2381
2387
2393
2389
2380
2375
2372
2373
2350
2333
2312
2299
2286
2256
2225
2197
2176
2149
2108
2070
2033
2008
1980
1939
1906
1876
1865
1848
1827
1810
1800
1799
1797
1782
1777
1769
1785
1770
1762
1749
1741
1739
1726
1700
1678
1652
1643
1605
1574
1537
1508
1485
1448
1399
1365
1329
1311
1274
1246
1220
1206
1198
1181
1164
1158
1159
1169
1158
1156
1154
1162
1171
1163
1154
1147
1149
1142
1121
1103
1084
1076
1063
1035
1011
986
973
952
923
896
875
864
852
828
821
810
828
819
818
817
824
838
843
838
840
838
853
837
828
812
803
798
777
744
721
696
682
647
617
584
560
539
507
476
455
443
440
420
412
407
415
425
423
424
429
446
455
453
453
455
465
470
458
450
440
441
431
412
393
377
369
354
323
305
282
285
261
245
230
225
231
232
226
231
234
261
257
266
269
282
300
303
296
298
298
307
296
289
278
276
275
261
242
231
223
221
198
184
169
167
167
155
146
143
156
162
162
167
176
198
216
220
229
236
255
264
266
266
267
277
279
261
258
247
260
243
230
215
205
201
189
167
157
145
157
135
128
118
121
131
132
128
135
145
166
167
173
177
189
202
199
192
191
196
202
187
178
167
166
163
145
128
113
112
102
84
71
64
68
71
64
64
68
88
100
110
123
143
172
193
194
210
217
246
247
252
253
260
270
272
260
260
253
269
248
239
225
221
223
214
202
200
202
214
210
215
219
236
257
267
275
292
316
342
348
361
373
394
411
411
413
415
432
434
428
423
419
423
423
409
398
387
391
383
376
369
371
386
393
387
397
403
433
442
456
467
484
506
518
516
525
527
549
533
528
516
514
514
500
481
466
452
445
417
396
374
362
356
339
323
316
321
329
322
324
328
346
362
362
368
374
395
401
398
395
393
397
396
383
371
359
362
345
328
307
293
288
274
245
231
215
221
208
201
194
197
209
213
205
213
217
244
236
239
237
244
252
246
234
226
219
218
195
178
160
151
145
125
102
85
77
69
45
30
18
19
20
9
6
6
24
31
33
39
47
63
74
73
74
74
90
82
77
68
64
69
63
43
34
19
22
2
-14
-34
-46
-50
-65
-91
-98
-109
-96
-110
-111
-113
-103
-90
-85
-83
-75
-64
-46
-51
-47
-47
-37
-27
-33
-42
-47
-45
-46
-64
-78
-92
-97
-105
-131
-150
-169
-172
-185
-204
-218
-227
-226
-225
-232
-231
-229
-203
-203
-196
-192
-181
-161
-152
-156
-152
-153
-138
-148
-154
-164
-168
-167
-178
-204
-213
-228
-223
-246
-260
-275
-279
-279
-287
-296
-297
-291
-276
-279
-271
-262
-240
-216
-208
-200
-188
-168
-154
-155
-154
-153
-143
-139
-153
-162
-173
-170
-177
-193
-208
-220
-224
-230
-250
-259
-269
-252
-262
-262
-262
-251
-227
-211
-202
-182
-164
-128
-119
-103
-92
-75
-51
-43
-49
-41
-39
-21
-30
-33
-40
-40
-39
-49
-64
-73
-76
-71
-86
-89
-91
-79
-63
-60
-54
-40
-13
11
25
44
65
96
123
133
147
160
183
195
196
196
198
206
208
193
188
176
187
166
152
134
124
124
118
104
100
95
111
103
105
105
117
138
148
146
159
167
188
186
190
189
195
202
197
187
184
183
188
171
161
149
145
141
120
99
84
81
74
60
52
48
57
65
61
64
69
90
105
112
121
132
151
162
155
158
154
174
162
156
148
146
151
147
132
125
113
120
97
85
68
63
68
62
50
53
58
78
80
89
98
119
142
153
159
173
189
209
207
211
211
220
226
216
206
198
202
197
181
166
152
149
141
120
105
93
96
94
88
86
92
109
122
121
137
147
182
188
200
209
223
240
246
239
239
232
245
222
211
193
184
181
163
135
117
98
89
63
44
26
20
18
7
-5
-8
-4
3
-11
-20
-33
-42
-59
-99
-145
-198
-249
-321
-412
-510
-614
-717
-830
-961
-1091
-1222
-1344
-1477
-1614
-1751
-1882
-2004
-2129
-2266
-2384
-2505
-2598
-2714
-2820
-2925
-3022
-3115
-3218
-3337
-3448
-3568
-3670
-3809
-3937
-4071
-4195
-4315
-4449
-4588
-4714
-4832
-4927
-5025
-5098
-5154
-5184
-5192
-5192
-5173
-5120
-5030
-4901
-4751
-4551
-4308
-4012
-3673
-3310
-2906
-2463
-1970
-1453
-915
-350
238
849
1464
2067
2666
3255
3841
4395
4925
5436
5933
6421
6879
7298
7711
8097
8487
8834
9172
9493
9806
10104
10371
10600
10813
10992
11162
11263
11344
11389
11413
11409
11364
11286
11189
11073
10943
10772
10588
10381
10162
9924
9652
9360
9061
8757
8446
8110
7774
7433
7098
6760
6405
6057
5715
5393
5065
4737
4420
4114
3826
3542
3255
2980
2711
2464
2206
1953
1706
1469
1249
1025
792
579
368
184
-16
-206
-391
-562
-720
-880
-1045
-1188
-1328
-1438
-1574
-1689
-1799
-1890
-1968
-2049
-2126
-2189
-2241
-2278
-2327
-2363
-2397
-2418
-2435
-2465
-2495
-2518
-2534
-2549
-2580
-2606
-2631
-2644
-2659
-2690
-2716
-2741
-2750
-2772
-2801
-2826
-2846
-2855
-2862
-2876
-2884
-2888
-2871
-2871
-2866
-2860
-2844
-2815
-2793
-2785
-2764
-2748
-2715
-2703
-2690
-2682
-2669
-2650
-2643
-2650
-2642
-2642
-2621
-2634
-2636
-2644
-2644
-2641
-2650
-2662
-2666
-2665
-2653
-2661
-2658
-2654
-2636
-2613
-2602
-2591
-2570
-2540
-2509
-2493
-2471
-2449
-2416
-2385
-2373
-2357
-2343
-2315
-2301
-2296
-2289
-2280
-2265
-2255
-2257
-2256
-2259
-2243
-2252
-2256
-2261
-2256
-2239
-2227
-2226
-2210
-2195
-2160
-2143
-2120
-2098
-2068
-2030
-2005
-1993
-1965
-1944
-1905
-1897
-1884
-1876
-1861
-1847
-1844
-1846
-1843
-1837
-1825
-1836
-1839
-1844
-1839
-1832
-1836
-1839
-1834
-1816
-1797
-1789
-1772
-1752
-1719
-1688
-1672
-1648
-1625
-1588
-1562
-1546
-1529
-1512
-1490
-1474
-1473
-1469
-1469
-1448
-1458
-1463
-1474
-1477
-1472
-1477
-1494
-1502
-1511
-1503
-1516
-1521
-1526
-1521
-1506
-1500
-1505
-1491
-1480
-1450
-1445
-1433
-1424
-1407
-1391
-1387
-1388
-1386
-1382
-1374
-1390
-1400
-1413
-1417
-1420
-1438
-1456
-1470
-1476
-1484
-1506
-1522
-1535
-1535
-1536
-1551
-1557
-1560
-1547
-1540
-1539
-1532
-1521
-1501
-1483
-1481
-1471
-1466
-1439
-1443
-1441
-1443
-1439
-1429
-1430
-1443
-1448
-1459
-1453
-1474
-1488
-1509
-1522
-1528
-1546
-1576
-1590
-1606
-1603
-1622
-1631
-1641
-1639
-1632
-1633
-1637
-1630
-1618
-1599
-1601
-1595
-1592
-1579
-1567
-1570
-1575
-1577
-1569
-1568
-1581
-1592
-1603
-1605
-1613
-1638
-1657
-1678
-1686
-1702
-1726
-1747
-1765
-1774
-1785
-1809
-1819
-1830
-1815
-1828
-1831
-1835
-1832
-1822
-1820
-1829
-1830
-1835
-1822
-1839
-1847
-1862
-1868
-1868
-1882
-1910
-1925
-1945
-1953
-1982
-2007
-2035
-2054
-2071
-2099
-2127
-2145
-2156
-2157
-2175
-2181
-2185
-2175
-2162
-2162
-2159
-2153
-2135
-2126
-2128
-2128
-2127
-2116
-2111
-2122
-2129
-2137
-2132
-2135
-2145
-2154
-2160
-2158
-2160
-2179
-2184
-2193
-2174
-2183
-2181
-2178
-2165
-2143
-2126
-2116
-2095
-2075
-2032
-2018
-1993
-1974
-1945
-1909
-1889
-1880
-1862
-1847
-1824
-1822
-1816
-1812
-1799
-1785
-1784
-1785
-1780
-1770
-1756
-1761
-1757
-1752
-1733
-1710
-1699
-1683
-1660
-1622
-1590
-1565
-1535
-1500
-1452
-1408
-1377
-1341
-1306
-1259
-1222
-1193
-1165
-1133
-1092
-1059
-1042
-1010
-984
-933
-910
-881
-854
-819
-777
-741
-715
-675
-637
-574
-541
-492
-446
-386
-318
-263
-213
-152
-90
-19
33
91
147
211
277
327
373
424
480
538
577
622
665
718
770
804
840
877
927
965
996
1030
1069
1118
1165
1201
1242
1284
1340
1385
1427
1469
1516
1573
1620
1650
1694
1730
1786
1814
1846
1873
1905
1942
1969
1984
2009
2028
2069
2072
2086
2094
2111
2132
2141
2144
2156
2171
2196
2204
2220
2236
2262
2292
2310
2325
2346
2375
2405
2417
2435
2451
2477
2499
2504
2510
2517
2537
2543
2540
2539
2538
2545
2546
2534
2523
2511
2513
2502
2492
2482
2480
2492
2497
2487
2494
2497
2524
2528
2535
2540
2552
2570
2577
2571
2577
2577
2598
2582
2577
2566
2564
2565
2552
2534
2520
2506
2499
2471
2450
2425
2412
2403
2382
2361
2350
2348
2350
2337
2334
2332
2343
2351
2342
2338
2334
2344
2339
2325
2312
2299
2293
2281
2255
2230
2203
2189
2156
2122
2086
2055
2034
2003
1957
1926
1891
1878
1845
1819
1793
1776
1770
1755
1731
1724
1712
1724
1702
1690
1674
1666
1660
1640
1614
1593
1572
1556
1518
1486
1451
1425
1401
1362
1321
1286
1259
1233
1193
1162
1135
1122
1111
1087
1071
1060
1066
1063
1055
1051
1050
1055
1057
1046
1038
1027
1033
1014
998
977
962
955
937
905
883
858
851
823
801
777
763
758
745
721
718
712
733
724
728
732
749
771
784
793
807
822
843
841
844
843
850
857
847
835
828
828
825
804
789
772
766
756
729
711
695
697
689
677
671
670
680
689
688
694
700
727
727
732
732
738
752
754
740
734
722
725
705
690
670
658
653
635
604
588
567
566
538
520
503
496
494
483
471
467
468
478
467
468
468
481
494
492
489
489
498
503
490
481
470
469
464
443
427
410
407
393
370
347
326
313
296
268
250
230
236
215
203
191
188
195
195
186
187
186
202
195
196
191
195
206
202
183
179
168
175
156
143
128
121
114
96
71
53
39
32
6
-9
-23
-23
-19
-26
-30
-28
-13
-1
-1
5
12
30
44
42
45
47
62
65
57
51
46
48
45
27
17
2
11
-11
-27
-45
-55
-56
-63
-79
-83
-86
-69
-75
-69
-67
-54
-31
-21
-23
-10
-1
21
19
22
21
26
32
24
11
5
1
2
-18
-29
-43
-47
-51
-70
-88
-101
-101
-104
-118
-125
-128
-115
-103
-104
-96
-86
-61
-45
-38
-29
-17
3
17
12
18
17
39
29
23
12
7
9
1
-17
-28
-42
-37
-62
-75
-92
-97
-91
-96
-108
-103
-95
-72
-65
-49
-33
-6
23
40
52
72
95
122
126
136
142
158
171
167
160
155
159
154
137
122
108
106
100
81
68
57
61
59
53
50
54
69
81
77
88
92
121
119
122
122
126
136
136
124
119
108
117
91
76
54
40
32
10
-22
-42
-63
-72
-97
-114
-131
-135
-135
-143
-150
-147
-136
-117
-116
-108
-99
-80
-63
-63
-62
-61
-49
-47
-57
-65
-73
-71
-75
-93
-108
-124
-127
-140
-157
-171
-180
-176
-176
-190
-187
-186
-158
-154
-140
-127
-104
-74
-52
-41
-20
-6
30
29
38
40
51
65
65
56
54
52
57
42
32
18
14
12
-1
-14
-19
-14
-3
-8
-4
2
20
40
45
54
68
96
112
119
126
135
151
161
157
155
151
158
153
143
132
124
126
118
92
81
63
70
51
39
27
24
29
28
18
22
23
49
41
48
50
61
78
82
80
84
88
98
86
80
71
70
70
57
41
31
28
25
3
-13
-30
-34
-39
-57
-69
-77
-68
-69
-75
-77
-75
-60
-48
-45
-40
-35
-16
-14
-13
-15
-13
-2
-3
-21
-27
-39
-30
-44
-55
-70
-78
-82
-95
-121
-133
-151
-143
-168
-178
-189
-186
-177
-178
-180
-174
-164
-143
-142
-133
-127
-110
-92
-89
-89
-84
-74
-65
-74
-78
-84
-80
-79
-95
-106
-118
-116
-127
-146
-161
-174
-175
-178
-190
-196
-199
-184
-186
-184
-181
-169
-145
-130
-131
-118
-109
-81
-76
-69
-67
-60
-49
-49
-65
-66
-74
-60
-80
-90
-105
-111
-115
-130
-148
-159
-165
-160
-174
-177
-178
-165
-146
-139
-132
-116
-92
-69
-62
-50
-37
-14
4
4
7
9
24
25
17
9
3
4
1
-15
-28
-43
-41
-61
-76
-92
-98
-93
-93
-104
-100
-95
-70
-64
-50
-38
-18
8
23
23
40
50
80
76
81
80
87
93
87
76
69
66
70
53
44
34
35
38
30
23
25
37
51
53
63
76
103
129
140
158
175
206
223
231
239
247
261
270
266
265
259
272
257
245
230
222
222
213
194
185
176
186
177
176
173
182
202
212
211
230
246
284
295
313
327
348
370
379
382
390
399
413
404
402
397
402
407
395
382
373
373
370
353
343
335
341
345
336
335
336
354
365
369
379
393
416
435
440
452
459
488
484
485
481
482
491
488
474
468
457
463
442
426
405
391
385
367
336
323
308
313
295
287
279
283
292
293
293
302
315
337
337
345
351
366
379
375
369
366
373
373
360
350
341
341
335
312
293
273
266
251
228
210
196
192
187
169
164
157
177
168
169
169
176
190
195
189
190
186
199
183
173
157
150
150
135
109
95
78
75
49
29
7
-6
-15
-34
-54
-64
-68
-63
-76
-79
-80
-68
-54
-55
-55
-50
-36
-27
-31
-32
-33
-24
-21
-36
-45
-56
-54
-61
-78
-94
-109
-115
-129
-158
-175
-196
-190
-212
-224
-235
-236
-228
-225
-230
-225
-221
-196
-202
-196
-195
-185
-168
-167
-178
-178
-182
-176
-192
-203
-217
-222
-227
-243
-264
-278
-288
-292
-317
-333
-348
-350
-348
-359
-364
-362
-344
-332
-327
-316
-300
-274
-253
-247
-238
-230
-212
-204
-205
-208
-209
-203
-205
-225
-231
-244
-233
-251
-263
-278
-285
-287
-295
-313
-318
-325
-308
-322
-320
-320
-307
-285
-274
-270
-256
-242
-218
-215
-206
-199
-183
-167
-165
-168
-164
-156
-145
-154
-156
-160
-153
-148
-157
-165
-170
-163
-165
-175
-180
-181
-169
-160
-160
-154
-145
-121
-104
-91
-78
-63
-39
-24
-27
-16
-14
9
4
3
-2
-2
2
-3
-20
-26
-38
-28
-54
-67
-85
-92
-91
-100
-114
-117
-116
-103
-105
-99
-92
-73
-49
-37
-27
-10
12
37
43
54
64
83
100
99
101
104
119
121
114
107
101
104
103
89
78
68
73
67
58
51
50
62
67
57
64
67
92
93
96
95
97
101
90
60
35
-3
-28
-99
-165
-247
-329
-416
-523
-643
-762
-883
-997
-1132
-1260
-1388
-1504
-1614
-1737
-1860
-1972
-2073
-2169
-2280
-2382
-2481
-2567
-2655
-2760
-2865
-2974
-3073
-3191
-3321
-3454
-3586
-3713
-3844
-3987
-4130
-4273
-4401
-4540
-4672
-4793
-4892
-4963
-5026
-5083
-5105
-5111
-5074
-5033
-4957
-4849
-4695
-4493
-4257
-3993
-3672
-3318
-2903
-2489
-2027
-1537
-1009
-453
110
683
1269
1859
2454
3019
3578
4118
4648
5159
5637
6094
6541
6976
7393
7775
8145
8500
8852
9190
9497
9789
10058
10314
10529
10703
10845
10954
11036
11080
11079
11049
10990
10920
10805
10673
10520
10355
10183
9984
9751
9511
9249
8990
8695
8393
8081
7770
7461
7139
6799
6476
6148
5846
5515
5199
4884
4585
4293
3996
3699
3413
3135
2869
2587
2316
2048
1797
1553
1300
1051
815
594
379
156
-55
-258
-444
-625
-815
-990
-1156
-1297
-1440
-1582
-1711
-1826
-1924
-2015
-2109
-2188
-2260
-2305
-2368
-2421
-2471
-2509
-2532
-2563
-2605
-2633
-2664
-2678
-2712
-2740
-2771
-2794
-2809
-2835
-2875
-2898
-2926
-2933
-2970
-2995
-3021
-3034
-3043
-3059
-3075
-3082
-3083
-3072
-3080
-3076
-3072
-3055
-3036
-3031
-3025
-3014
-2993
-2975
-2973
-2968
-2962
-2947
-2935
-2941
-2942
-2942
-2928
-2925
-2930
-2934
-2935
-2929
-2925
-2933
-2931
-2930
-2904
-2903
-2891
-2880
-2857
-2823
-2795
-2776
-2746
-2720
-2677
-2656
-2630
-2608
-2579
-2544
-2523
-2517
-2497
-2483
-2453
-2451
-2444
-2440
-2429
-2419
-2421
-2427
-2426
-2422
-2409
-2417
-2413
-2409
-2390
-2368
-2357
-2343
-2321
-2286
-2252
-2230
-2204
-2177
-2140
-2108
-2092
-2071
-2052
-2020
-1999
-1988
-1976
-1963
-1942
-1926
-1925
-1916
-1912
-1885
-1888
-1882
-1879
-1867
-1845
-1830
-1824
-1807
-1790
-1753
-1740
-1716
-1695
-1663
-1623
-1596
-1583
-1556
-1533
-1496
-1484
-1467
-1454
-1434
-1415
-1409
-1409
-1403
-1396
-1384
-1395
-1398
-1404
-1399
-1395
-1406
-1416
-1420
-1412
-1406
-1411
-1410
-1404
-1383
-1364
-1357
-1342
-1325
-1295
-1274
-1262
-1249
-1233
-1212
-1196
-1199
-1191
-1191
-1167
-1176
-1179
-1188
-1190
-1187
-1193
-1212
-1223
-1237
-1232
-1255
-1266
-1279
-1280
-1271
-1272
-1280
-1272
-1262
-1237
-1229
-1213
-1197
-1172
-1148
-1136
-1130
-1120
-1107
-1091
-1098
-1100
-1105
-1101
-1099
-1113
-1129
-1143
-1147
-1160
-1185
-1206
-1226
-1234
-1246
-1271
-1288
-1302
-1302
-1306
-1316
-1322
-1323
-1313
-1306
-1315
-1309
-1310
-1286
-1294
-1296
-1303
-1306
-1304
-1313
-1334
-1348
-1368
-1368
-1401
-1423
-1452
-1473
-1487
-1515
-1553
-1578
-1603
-1613
-1639
-1656
-1671
-1673
-1671
-1677
-1685
-1682
-1671
-1653
-1653
-1647
-1641
-1625
-1611
-1614
-1618
-1623
-1617
-1623
-1641
-1657
-1673
-1680
-1692
-1719
-1744
-1769
-1783
-1806
-1835
-1863
-1885
-1895
-1908
-1934
-1941
-1950
-1931
-1937
-1934
-1931
-1919
-1899
-1888
-1887
-1877
-1872
-1847
-1859
-1859
-1867
-1867
-1861
-1871
-1889
-1898
-1907
-1908
-1927
-1940
-1956
-1963
-1969
-1987
-2007
-2016
-2016
-2008
-2017
-2015
-2011
-1993
-1975
-1971
-1963
-1952
-1928
-1914
-1911
-1904
-1896
-1880
-1869
-1871
-1873
-1875
-1866
-1868
-1875
-1883
-1884
-1875
-1875
-1891
-1892
-1900
-1884
-1894
-1898
-1901
-1897
-1883
-1875
-1875
-1860
-1849
-1812
-1809
-1790
-1775
-1748
-1715
-1695
-1679
-1656
-1631
-1598
-1585
-1565
-1547
-1519
-1488
-1470
-1454
-1430
-1399
-1365
-1348
-1324
-1299
-1261
-1223
-1197
-1164
-1126
-1071
-1023
-980
-931
-875
-807
-739
-680
-617
-553
-474
-408
-345
-284
-218
-142
-76
-27
36
93
171
224
279
330
385
444
493
528
575
617
682
713
757
798
852
912
962
1010
1066
1125
1193
1240
1294
1345
1405
1466
1513
1555
1603
1656
1709
1742
1781
1817
1863
1906
1931
1958
1986
2027
2055
2074
2096
2121
2156
2188
2210
2236
2263
2307
2335
2365
2395
2432
2480
2518
2539
2573
2600
2645
2666
2689
2707
2730
2758
2774
2774
2787
2791
2816
2804
2801
2792
2791
2792
2781
2766
2759
2754
2759
2744
2739
2733
2741
2753
2753
2754
2763
2780
2797
2797
2802
2807
2822
2833
2826
2823
2818
2827
2821
2806
2791
2777
2769
2755
2728
2703
2674
2662
2627
2596
2564
2539
2527
2507
2476
2460
2443
2446
2431
2423
2412
2409
2414
2408
2387
2382
2370
2378
2353
2336
2316
2303
2290
2265
2234
2207
2182
2163
2122
2089
2054
2030
2009
1975
1942
1916
1903
1891
1868
1853
1842
1845
1849
1838
1833
1829
1840
1839
1828
1818
1807
1803
1793
1769
1747
1722
1716
1681
1650
1615
1584
1562
1529
1483
1447
1409
1390
1352
1322
1292
1274
1267
1251
1224
1217
1209
1222
1209
1205
1198
1200
1203
1193
1178
1167
1156
1152
1123
1101
1076
1059
1041
1007
971
939
915
889
850
817
787
772
756
728
709
694
697
693
684
681
683
694
703
699
702
702
723
712
706
694
686
686
674
650
634
614
611
583
561
533
514
502
478
442
426
409
413
395
389
384
391
402
404
404
413
426
445
443
448
451
463
473
466
456
448
447
440
418
398
378
368
354
322
297
272
261
244
220
202
191
192
193
182
185
186
214
213
220
225
237
258
268
267
273
273
290
278
272
259
253
254
241
214
202
185
181
155
134
113
103
97
82
66
62
64
76
70
76
82
101
121
126
130
137
153
162
157
153
149
154
153
135
122
107
106
95
77
60
46
41
32
9
-1
-12
4
-8
-10
-12
-4
15
29
34
51
67
102
108
123
133
151
176
188
188
200
209
230
231
236
239
250
262
261
257
259
264
275
266
263
261
270
281
280
283
292
315
332
341
356
373
401
424
431
443
453
474
484
486
488
493
505
510
497
496
488
504
489
481
471
467
468
462
446
442
435
449
433
430
423
428
441
442
435
438
441
454
446
444
439
442
445
436
422
416
414
416
398
387
375
374
370
351
333
319
319
311
295
284
276
280
282
272
269
267
280
286
287
288
292
306
312
301
303
298
315
305
300
293
291
295
289
270
261
245
250
218
199
174
160
153
135
111
97
87
89
74
67
61
67
76
73
68
71
80
93
87
87
85
95
102
93
86
79
86
80
64
48
34
27
15
-10
-31
-51
-55
-70
-87
-102
-111
-108
-110
-127
-126
-128
-106
-107
-104
-102
-94
-81
-78
-88
-87
-92
-76
-96
-103
-117
-121
-121
-136
-159
-176
-194
-204
-233
-254
-274
-282
-285
-298
-311
-313
-305
-293
-297
-291
-283
-263
-243
-237
-228
-219
-196
-188
-188
-188
-186
-176
-170
-177
-183
-190
-184
-195
-208
-225
-236
-238
-247
-271
-277
-285
-269
-273
-269
-265
-251
-228
-211
-205
-184
-168
-127
-122
-104
-92
-71
-50
-42
-40
-34
-28
-16
-27
-33
-42
-44
-46
-64
-85
-99
-106
-110
-129
-139
-147
-140
-132
-137
-134
-127
-101
-87
-79
-68
-55
-34
-17
-12
-7
-4
13
9
4
-5
-9
-4
-11
-33
-44
-61
-60
-81
-97
-116
-127
-129
-139
-158
-159
-162
-138
-144
-136
-128
-108
-83
-69
-58
-42
-24
1
3
11
17
30
43
39
31
28
31
32
15
3
-9
-11
-16
-36
-49
-59
-50
-50
-54
-52
-43
-23
-4
7
23
40
74
85
100
111
128
153
165
161
164
158
164
142
118
82
45
5
-55
-140
-217
-309
-387
-503
-614
-729
-836
-941
-1055
-1173
-1281
-1383
-1474
-1583
-1680
-1778
-1865
-1951
-2052
-2156
-2255
-2349
-2451
-2573
-2697
-2828
-2954
-3087
-3242
-3395
-3549
-3692
-3850
-4019
-4186
-4346
-4490
-4626
-4757
-4862
-4947
-4988
-5034
-5053
-5054
-5026
-4963
-4880
-4776
-4626
-4440
-4196
-3932
-3620
-3273
-2880
-2447
-1993
-1520
-998
-451
137
717
1319
1929
2549
3166
3760
4332
4891
5432
5957
6439
6908
7353
7787
8200
8576
8933
9280
9623
9950
10249
10533
10792
11031
11233
11382
11502
11587
11652
11671
11648
11595
11516
11419
11295
11135
10966
10777
10597
10374
10144
9895
9640
9381
9100
8800
8501
8192
7894
7566
7242
6912
6589
6272
5941
5598
5269
4938
4626
4290
3964
3641
3331
3030
2725
2424
2138
1863
1603
1330
1074
825
596
377
154
-57
-253
-428
-598
-771
-929
-1076
-1203
-1325
-1456
-1573
-1684
-1776
-1871
-1969
-2061
-2145
-2218
-2291
-2374
-2443
-2511
-2550
-2615
-2667
-2717
-2756
-2783
-2817
-2858
-2888
-2919
-2929
-2964
-2986
-3010
-3022
-3025
-3040
-3065
-3075
-3086
-3082
-3099
-3109
-3121
-3124
-3125
-3138
-3154
-3162
-3166
-3164
-3183
-3192
-3202
-3200
-3195
-3202
-3208
-3208
-3197
-3191
-3198
-3199
-3199
-3187
-3178
-3182
-3180
-3177
-3161
-3151
-3147
-3141
-3132
-3113
-3099
-3101
-3090
-3084
-3052
-3051
-3042
-3037
-3024
-3003
-2990
-2986
-2973
-2962
-2931
-2930
-2917
-2910
-2894
-2873
-2866
-2870
-2862
-2856
-2837
-2837
-2831
-2826
-2810
-2790
-2780
-2773
-2757
-2734
-2706
-2698
-2682
-2666
-2637
-2607
-2592
-2574
-2551
-2517
-2490
-2474
-2455
-2433
-2401
-2373
-2360
-2344
-2328
-2302
-2287
-2280
-2272
-2261
-2240
-2224
-2224
-2208
-2197
-2159
-2149
-2130
-2112
-2085
-2053
-2027
-2013
-1990
-1970
-1928
-1920
-1900
-1887
-1865
-1837
-1824
-1821
-1809
-1798
-1778
-1779
-1776
-1777
-1770
-1762
-1768
-1776
-1777
-1772
-1760
-1766
-1763
-1759
-1741
-1723
-1717
-1707
-1693
-1666
-1648
-1639
-1626
-1610
-1585
-1564
-1556
-1545
-1533
-1510
-1498
-1492
-1486
-1477
-1460
-1451
-1460
-1455
-1457
-1436
-1440
-1438
-1438
-1431
-1416
-1407
-1409
-1399
-1392
-1361
-1365
-1355
-1352
-1339
-1322
-1319
-1323
-1320
-1317
-1306
-1314
-1317
-1321
-1317
-1312
-1321
-1334
-1340
-1341
-1341
-1361
-1375
-1391
-1395
-1398
-1416
-1430
-1440
-1434
-1438
-1448
-1454
-1454
-1442
-1432
-1435
-1435
-1435
-1424
-1425
-1431
-1438
-1442
-1435
-1439
-1459
-1466
-1479
-1472
-1491
-1508
-1531
-1548
-1561
-1583
-1619
-1640
-1667
-1668
-1705
-1727
-1752
-1764
-1769
-1785
-1803
-1812
-1817
-1813
-1828
-1835
-1845
-1844
-1842
-1853
-1868
-1877
-1879
-1881
-1901
-1915
-1930
-1936
-1944
-1970
-1994
-2018
-2029
-2052
-2083
-2110
-2134
-2148
-2163
-2188
-2207
-2225
-2226
-2241
-2253
-2263
-2266
-2256
-2254
-2267
-2264
-2267
-2249
-2253
-2254
-2257
-2254
-2245
-2245
-2258
-2258
-2265
-2249
-2271
-2281
-2297
-2304
-2308
-2324
-2342
-2352
-2359
-2355
-2369
-2373
-2377
-2368
-2355
-2352
-2348
-2337
-2317
-2295
-2290
-2277
-2264
-2242
-2222
-2219
-2212
-2204
-2182
-2174
-2173
-2172
-2169
-2160
-2156
-2164
-2171
-2178
-2168
-2177
-2183
-2189
-2186
-2171
-2163
-2166
-2153
-2143
-2110
-2096
-2075
-2056
-2027
-1991
-1962
-1947
-1915
-1888
-1838
-1821
-1793
-1769
-1736
-1699
-1674
-1654
-1630
-1603
-1569
-1557
-1536
-1515
-1482
-1445
-1418
-1390
-1351
-1300
-1246
-1205
-1155
-1101
-1033
-965
-912
-851
-790
-712
-645
-586
-526
-464
-395
-331
-279
-225
-174
-106
-64
-19
21
67
121
164
194
235
274
333
374
422
469
527
595
654
702
769
832
916
971
1035
1097
1167
1237
1294
1345
1400
1456
1516
1552
1594
1631
1678
1723
1751
1777
1805
1841
1874
1891
1914
1939
1976
2012
2035
2068
2104
2158
2203
2244
2289
2337
2391
2442
2479
2523
2563
2624
2654
2689
2718
2752
2792
2820
2833
2852
2864
2890
2891
2895
2893
2898
2909
2907
2893
2895
2894
2913
2909
2915
2921
2939
2961
2973
2981
2995
3011
3033
3033
3039
3042
3054
3064
3058
3048
3041
3040
3032
3008
2986
2963
2949
2930
2894
2864
2833
2818
2794
2763
2736
2715
2706
2697
2677
2670
2663
2682
2675
2676
2675
2682
2697
2703
2697
2698
2694
2706
2690
2681
2667
2658
2656
2639
2607
2588
2564
2554
2520
2493
2465
2448
2433
2409
2383
2368
2359
2359
2341
2334
2327
2334
2339
2330
2319
2312
2313
2308
2288
2272
2257
2252
2240
2212
2189
2164
2151
2129
2097
2066
2038
2017
1992
1953
1926
1898
1897
1868
1849
1829
1819
1820
1813
1799
1795
1789
1801
1783
1775
1759
1752
1750
1731
1700
1679
1655
1643
1609
1579
1545
1519
1494
1457
1415
1381
1351
1329
1290
1261
1235
1222
1213
1191
1172
1160
1162
1158
1145
1138
1134
1140
1141
1127
1116
1103
1101
1089
1069
1048
1030
1020
1003
970
949
922
919
885
859
830
810
797
778
753
739
723
731
708
699
687
686
694
691
679
679
677
685
673
664
652
647
643
625
602
588
577
571
545
525
504
492
480
452
426
403
395
380
358
341
330
333
333
323
318
316
329
334
333
333
336
350
355
343
343
335
350
334
324
310
302
301
290
268
253
233
233
197
174
147
131
124
106
85
75
70
76
65
63
61
70
80
78
73
76
83
93
83
78
71
74
74
59
45
34
36
28
10
-6
-21
-26
-36
-58
-76
-91
-91
-99
-107
-112
-110
-95
-85
-89
-77
-71
-42
-39
-32
-29
-20
-6
-3
-13
-13
-19
-4
-25
-34
-49
-54
-55
-71
-93
-108
-121
-125
-147
-160
-172
-172
-166
-169
-171
-162
-145
-122
-115
-101
-87
-62
-40
-34
-24
-14
9
20
21
23
26
37
43
35
29
23
30
23
13
3
0
8
10
-3
2
3
29
33
45
57
79
109
132
142
166
184
224
228
243
251
267
286
290
287
288
289
296
282
274
262
259
257
242
225
216
216
220
209
207
208
223
239
241
251
264
294
311
320
329
340
358
371
370
370
368
379
370
359
345
336
337
328
304
295
281
286
270
259
248
246
253
252
241
249
254
284
282
295
305
324
346
355
358
364
370
379
365
357
344
341
339
322
302
288
282
276
254
237
223
219
215
196
186
179
189
188
182
181
184
197
209
212
219
225
248
248
249
246
249
260
259
243
238
227
234
217
203
185
173
167
149
117
101
82
86
61
50
39
41
47
46
44
51
62
83
84
95
102
119
136
138
135
136
143
145
130
118
105
102
95
70
50
31
26
8
-16
-37
-55
-63
-71
-89
-100
-110
-97
-107
-109
-112
-105
-86
-77
-80
-74
-71
-52
-57
-58
-64
-65
-59
-67
-91
-98
-110
-104
-126
-140
-158
-168
-177
-196
-217
-231
-238
-234
-248
-250
-249
-234
-216
-210
-202
-186
-160
-137
-130
-119
-108
-87
-72
-77
-77
-80
-70
-72
-82
-91
-98
-98
-102
-120
-130
-144
-134
-153
-163
-174
-175
-166
-163
-169
-163
-158
-133
-131
-119
-110
-92
-67
-54
-56
-43
-37
-15
-21
-22
-28
-26
-24
-33
-46
-53
-57
-55
-74
-86
-100
-103
-104
-118
-129
-132
-123
-116
-119
-116
-109
-88
-69
-65
-53
-42
-17
-3
3
10
17
29
36
25
24
16
32
15
6
-6
-11
-10
-18
-37
-48
-62
-57
-77
-86
-98
-97
-85
-84
-91
-83
-76
-51
-48
-39
-32
-17
1
7
8
15
27
43
37
38
37
46
54
47
40
38
47
49
40
35
32
42
50
44
47
53
76
93
105
120
141
172
198
207
228
243
281
288
299
305
317
333
339
334
336
332
346
328
319
302
295
294
280
255
244
233
235
218
210
202
207
217
218
218
229
244
265
265
271
275
289
302
299
297
297
307
308
297
288
280
282
278
259
243
226
221
208
188
171
158
156
151
131
128
121
143
137
141
144
155
171
179
175
180
179
197
181
175
162
158
158
144
119
102
83
73
44
20
-6
-21
-32
-53
-75
-86
-88
-83
-93
-93
-90
-74
-55
-50
-42
-30
-5
9
13
18
23
37
44
36
30
24
27
19
4
-10
-22
-26
-38
-66
-80
-99
-92
-111
-122
-134
-136
-130
-129
-136
-131
-128
-100
-106
-99
-98
-88
-74
-75
-85
-89
-94
-91
-108
-120
-135
-140
-144
-161
-183
-198
-208
-215
-239
-256
-272
-275
-276
-291
-300
-303
-289
-285
-286
-282
-273
-252
-235
-229
-220
-210
-189
-181
-178
-178
-175
-163
-161
-177
-179
-189
-177
-191
-202
-216
-226
-230
-242
-266
-275
-287
-274
-293
-297
-302
-295
-281
-277
-276
-267
-256
-236
-234
-226
-220
-205
-191
-191
-196
-196
-191
-186
-200
-210
-222
-226
-232
-257
-279
-301
-308
-329
-355
-378
-397
-405
-415
-436
-454
-474
-483
-512
-547
-591
-639
-685
-750
-841
-928
-1030
-1120
-1242
-1365
-1496
-1624
-1747
-1881
-2028
-2161
-2298
-2412
-2560
-2693
-2827
-2949
-3065
-3188
-3310
-3420
-3523
-3618
-3732
-3840
-3950
-4051
-4151
-4264
-4379
-4485
-4583
-4679
-4790
-4889
-4981
-5050
-5106
-5161
-5191
-5200
-5174
-5143
-5100
-5034
-4940
-4810
-4649
-4464
-4235
-3965
-3636
-3283
-2888
-2458
-1986
-1468
-926
-367
231
845
1496
2135
2777
3410
4038
4653
5235
5776
6310
6816
7322
7773
8211
8621
9017
9394
9741
10067
10386
10691
10985
11234
11463
11659
11834
11978
12077
12142
12179
12192
12174
12114
12035
11936
11827
11697
11534
11359
11166
10968
10734
10468
10183
9882
9571
9244
8893
8536
8168
7810
7423
7036
6646
6263
5892
5515
5130
4764
4401
4064
3716
3383
3058
2754
2468
2183
1897
1639
1385
1162
918
693
473
270
77
-119
-312
-491
-660
-814
-983
-1138
-1288
-1421
-1549
-1685
-1817
-1938
-2043
-2143
-2250
-2343
-2426
-2490
-2549
-2616
-2669
-2713
-2734
-2758
-2784
-2804
-2816
-2818
-2820
-2832
-2837
-2844
-2829
-2841
-2848
-2858
-2860
-2854
-2858
-2875
-2883
-2895
-2890
-2909
-2924
-2942
-2952
-2953
-2963
-2986
-2989
-2994
-2977
-2983
-2978
-2973
-2955
-2932
-2918
-2906
-2887
-2865
-2836
-2829
-2815
-2806
-2789
-2773
-2774
-2777
-2775
-2766
-2761
-2774
-2783
-2795
-2797
-2804
-2827
-2844
-2859
-2856
-2860
-2868
-2870
-2865
-2848
-2830
-2822
-2801
-2781
-2734
-2716
-2689
-2664
-2631
-2591
-2560
-2543
-2519
-2501
-2468
-2462
-2451
-2447
-2437
-2421
-2422
-2438
-2441
-2450
-2443
-2460
-2470
-2480
-2480
-2475
-2479
-2482
-2475
-2460
-2435
-2428
-2410
-2390
-2358
-2326
-2308
-2290
-2269
-2238
-2215
-2206
-2195
-2184
-2165
-2152
-2156
-2156
-2158
-2148
-2149
-2159
-2168
-2174
-2173
-2176
-2192
-2195
-2200
-2178
-2183
-2176
-2169
-2151
-2124
-2102
-2088
-2064
-2044
-2005
-1994
-1975
-1961
-1940
-1915
-1904
-1908
-1900
-1896
-1881
-1890
-1894
-1902
-1902
-1902
-1914
-1932
-1942
-1947
-1945
-1961
-1965
-1967
-1955
-1940
-1937
-1930
-1916
-1888
-1865
-1852
-1836
-1819
-1790
-1767
-1760
-1749
-1741
-1723
-1714
-1717
-1720
-1722
-1717
-1719
-1739
-1746
-1762
-1754
-1777
-1794
-1813
-1823
-1825
-1832
-1847
-1851
-1855
-1836
-1845
-1839
-1837
-1822
-1797
-1786
-1785
-1772
-1760
-1739
-1740
-1737
-1739
-1735
-1731
-1742
-1758
-1768
-1775
-1777
-1800
-1816
-1834
-1842
-1850
-1874
-1896
-1912
-1914
-1921
-1936
-1945
-1948
-1937
-1928
-1929
-1924
-1916
-1897
-1886
-1883
-1879
-1872
-1857
-1850
-1862
-1861
-1870
-1858
-1878
-1895
-1916
-1933
-1945
-1966
-2000
-2023
-2052
-2060
-2101
-2129
-2161
-2179
-2189
-2210
-2234
-2246
-2254
-2250
-2261
-2263
-2266
-2259
-2251
-2255
-2264
-2265
-2262
-2256
-2271
-2280
-2291
-2294
-2298
-2320
-2341
-2361
-2368
-2385
-2412
-2435
-2455
-2465
-2477
-2500
-2517
-2530
-2527
-2530
-2535
-2536
-2529
-2509
-2494
-2494
-2478
-2469
-2437
-2433
-2424
-2419
-2409
-2394
-2388
-2394
-2390
-2390
-2368
-2381
-2380
-2384
-2377
-2365
-2366
-2372
-2370
-2365
-2350
-2352
-2344
-2335
-2314
-2288
-2271
-2254
-2227
-2192
-2151
-2128
-2097
-2067
-2027
-1990
-1969
-1947
-1925
-1891
-1871
-1862
-1851
-1840
-1820
-1805
-1802
-1797
-1793
-1774
-1767
-1760
-1752
-1736
-1705
-1679
-1666
-1635
-1607
-1553
-1520
-1479
-1438
-1386
-1325
-1272
-1230
-1175
-1127
-1057
-1024
-981
-943
-896
-846
-808
-776
-737
-697
-649
-621
-586
-554
-513
-472
-444
-418
-382
-338
-290
-257
-215
-171
-114
-57
-13
38
94
165
226
279
334
392
459
519
567
617
665
728
774
819
861
908
965
1011
1039
1080
1115
1169
1201
1238
1275
1321
1374
1419
1452
1501
1546
1616
1652
1701
1746
1800
1856
1900
1938
1980
2022
2068
2092
2122
2148
2183
2219
2240
2258
2282
2313
2342
2354
2370
2386
2410
2433
2440
2453
2468
2499
2519
2534
2553
2574
2603
2630
2645
2663
2679
2712
2722
2734
2741
2753
2773
2781
2772
2773
2768
2780
2770
2761
2749
2742
2740
2725
2694
2678
2656
2658
2629
2613
2596
2591
2590
2581
2571
2568
2569
2579
2569
2566
2561
2567
2573
2565
2555
2549
2550
2547
2527
2510
2492
2483
2470
2440
2414
2388
2375
2350
2317
2287
2261
2245
2228
2202
2184
2166
2170
2150
2136
2121
2115
2120
2115
2097
2089
2078
2083
2066
2053
2036
2025
2019
2001
1968
1950
1926
1922
1887
1860
1829
1808
1788
1757
1723
1696
1673
1660
1628
1608
1591
1587
1588
1578
1571
1571
1581
1589
1584
1583
1583
1594
1600
1588
1581
1572
1577
1568
1550
1533
1518
1508
1495
1467
1445
1420
1416
1385
1362
1338
1323
1319
1309
1292
1287
1282
1298
1294
1299
1300
1310
1327
1331
1321
1327
1327
1343
1331
1325
1314
1310
1306
1291
1270
1256
1243
1238
1212
1195
1177
1170
1165
1148
1133
1126
1132
1138
1133
1137
1143
1163
1182
1185
1194
1202
1223
1234
1234
1234
1234
1240
1240
1224
1215
1199
1205
1180
1161
1138
1121
1112
1093
1063
1041
1019
1016
991
976
960
956
963
961
950
955
959
981
980
987
991
1003
1015
1015
1010
1012
1014
1022
1006
996
982
978
971
948
923
901
888
870
840
816
796
790
782
762
750
740
747
749
745
745
750
763
771
764
767
764
785
774
767
756
750
751
741
720
705
685
681
647
621
588
563
545
515
476
454
432
426
404
391
380
381
387
385
383
390
403
423
422
428
433
447
457
450
442
435
436
427
404
382
361
348
329
295
266
238
222
200
174
153
138
136
132
115
115
112
138
137
144
149
162
181
189
186
190
187
203
184
176
160
154
154
140
116
103
89
85
61
43
25
18
15
2
-11
-13
-6
7
3
8
14
33
51
54
57
63
80
88
84
81
77
81
80
63
50
36
34
23
6
-11
-25
-30
-42
-69
-81
-97
-86
-100
-107
-112
-109
-97
-92
-97
-90
-86
-60
-68
-64
-65
-57
-42
-42
-51
-53
-56
-51
-65
-75
-87
-90
-92
-107
-126
-138
-145
-148
-172
-187
-202
-204
-205
-220
-229
-233
-221
-219
-223
-223
-220
-206
-197
-200
-201
-202
-190
-191
-196
-202
-205
-198
-200
-219
-223
-233
-221
-235
-245
-257
-264
-266
-276
-297
-303
-313
-297
-315
-316
-320
-311
-294
-288
-286
-277
-266
-247
-247
-240
-234
-218
-200
-196
-196
-188
-174
-159
-163
-160
-158
-145
-135
-140
-142
-142
-127
-122
-124
-123
-117
-100
-84
-78
-68
-56
-28
-13
2
15
34
63
83
86
102
111
141
146
152
155
164
178
181
171
173
168
186
166
159
147
145
146
136
121
114
110
117
106
105
105
117
133
136
137
145
161
178
177
182
187
203
215
211
210
209
221
219
209
199
189
187
181
163
148
134
136
122
111
99
96
106
110
100
107
112
138
143
152
159
173
192
201
195
204
206
231
219
218
212
213
215
203
184
170
158
152
126
109
91
85
83
69
56
53
60
70
67
74
82
103
121
123
131
139
162
171
171
174
177
187
193
185
180
172
181
164
150
130
117
114
102
78
67
52
58
45
39
33
37
51
57
52
65
73
103
101
111
116
130
145
149
147
150
155
167
156
152
144
145
146
130
113
100
96
92
74
64
56
63
68
59
57
57
73
80
79
81
86
98
107
103
103
100
116
102
92
77
68
69
59
35
20
-2
-8
-36
-60
-86
-103
-110
-126
-153
-160
-169
-154
-164
-163
-161
-148
-132
-126
-124
-116
-106
-89
-94
-93
-94
-86
-79
-88
-99
-106
-104
-107
-125
-141
-158
-164
-174
-200
-219
-236
-236
-243
-254
-260
-260
-249
-239
-240
-232
-225
-196
-196
-189
-186
-176
-160
-155
-163
-165
-172
-163
-180
-191
-209
-218
-221
-237
-267
-281
-300
-301
-325
-341
-356
-359
-358
-363
-369
-365
-354
-334
-334
-324
-315
-296
-277
-273
-270
-262
-246
-235
-239
-241
-244
-236
-233
-247
-254
-262
-255
-257
-266
-272
-274
-267
-264
-272
-267
-264
-233
-231
-217
-204
-182
-151
-128
-118
-102
-91
-68
-76
-81
-98
-116
-135
-179
-245
-308
-386
-461
-569
-680
-801
-919
-1040
-1176
-1317
-1453
-1583
-1705
-1845
-1973
-2098
-2208
-2313
-2429
-2539
-2643
-2733
-2826
-2930
-3033
-3137
-3235
-3340
-3463
-3585
-3709
-3823
-3944
-4074
-4204
-4330
-4445
-4558
-4675
-4766
-4844
-4875
-4913
-4922
-4913
-4876
-4811
-4731
-4634
-4497
-4325
-4093
-3849
-3551
-3213
-2821
-2384
-1926
-1446
-925
-376
212
802
1416
2041
2683
3326
3951
4557
5148
5717
6264
6763
7244
7700
8140
8556
8931
9285
9622
9955
10267
10562
10852
11134
11409
11657
11863
12044
12194
12323
12411
12456
12466
12444
12398
12317
12195
12063
11906
11756
11560
11354
11127
10886
10627
10339
10021
9696
9352
9016
8637
8262
7875
7494
7117
6727
6330
5947
5568
5204
4829
4467
4109
3767
3435
3098
2767
2453
2154
1868
1573
1295
1027
779
539
294
59
-164
-366
-569
-773
-967
-1149
-1313
-1471
-1632
-1780
-1918
-2035
-2150
-2262
-2365
-2454
-2524
-2593
-2672
-2729
-2788
-2817
-2869
-2911
-2954
-2987
-3010
-3038
-3075
-3098
-3123
-3124
-3157
-3176
-3201
-3214
-3222
-3243
-3272
-3292
-3311
-3320
-3347
-3367
-3387
-3395
-3401
-3419
-3437
-3446
-3446
-3441
-3453
-3455
-3456
-3443
-3430
-3430
-3427
-3419
-3395
-3380
-3371
-3357
-3339
-3310
-3286
-3274
-3261
-3249
-3226
-3216
-3211
-3207
-3197
-3176
-3163
-3166
-3151
-3141
-3108
-3099
-3086
-3075
-3056
-3030
-3011
-3003
-2982
-2965
-2923
-2917
-2897
-2882
-2857
-2827
-2810
-2798
-2780
-2760
-2734
-2728
-2717
-2711
-2697
-2683
-2683
-2687
-2684
-2673
-2661
-2665
-2661
-2656
-2640
-2624
-2621
-2613
-2601
-2574
-2557
-2548
-2535
-2519
-2493
-2471
-2461
-2450
-2439
-2414
-2405
-2397
-2392
-2382
-2363
-2354
-2363
-2360
-2363
-2346
-2352
-2354
-2356
-2350
-2336
-2328
-2332
-2320
-2311
-2276
-2273
-2256
-2243
-2219
-2190
-2172
-2157
-2136
-2114
-2084
-2075
-2059
-2046
-2023
-1997
-1987
-1979
-1966
-1947
-1929
-1929
-1925
-1922
-1909
-1898
-1902
-1900
-1896
-1876
-1866
-1862
-1855
-1843
-1820
-1798
-1788
-1774
-1760
-1729
-1717
-1702
-1691
-1675
-1647
-1631
-1631
-1619
-1614
-1591
-1592
-1590
-1593
-1592
-1586
-1592
-1613
-1620
-1633
-1623
-1646
-1656
-1668
-1668
-1663
-1668
-1674
-1670
-1662
-1645
-1649
-1644
-1642
-1628
-1611
-1608
-1607
-1600
-1586
-1573
-1577
-1577
-1577
-1569
-1566
-1581
-1594
-1608
-1610
-1625
-1649
-1672
-1693
-1705
-1720
-1745
-1764
-1782
-1779
-1797
-1808
-1819
-1821
-1812
-1813
-1825
-1825
-1828
-1813
-1820
-1822
-1826
-1823
-1813
-1816
-1834
-1837
-1848
-1839
-1864
-1881
-1902
-1915
-1927
-1950
-1977
-1997
-2014
-2022
-2050
-2068
-2084
-2087
-2086
-2096
-2104
-2105
-2096
-2087
-2092
-2090
-2088
-2074
-2064
-2071
-2073
-2076
-2064
-2064
-2074
-2084
-2094
-2100
-2111
-2136
-2157
-2181
-2184
-2214
-2236
-2260
-2274
-2277
-2287
-2306
-2312
-2319
-2305
-2310
-2308
-2309
-2300
-2284
-2279
-2288
-2282
-2281
-2262
-2270
-2271
-2272
-2265
-2256
-2258
-2267
-2270
-2272
-2268
-2286
-2296
-2307
-2306
-2302
-2310
-2316
-2314
-2300
-2285
-2282
-2270
-2256
-2226
-2200
-2189
-2171
-2155
-2125
-2105
-2094
-2084
-2073
-2055
-2042
-2045
-2040
-2041
-2019
-2029
-2033
-2041
-2043
-2037
-2040
-2054
-2059
-2064
-2048
-2053
-2048
-2043
-2026
-1998
-1979
-1970
-1941
-1912
-1865
-1840
-1807
-1775
-1732
-1687
-1655
-1628
-1594
-1558
-1516
-1496
-1469
-1443
-1407
-1370
-1349
-1328
-1302
-1267
-1236
-1218
-1192
-1162
-1118
-1074
-1042
-999
-953
-890
-833
-779
-720
-655
-581
-508
-450
-380
-314
-223
-165
-100
-39
28
101
164
216
274
327
397
435
480
518
564
616
655
683
726
768
827
868
916
965
1025
1088
1141
