6832
6898
6951
6965
6951
6925
6887
6844
6796
6735
6679
6627
6597
6528
6465
6390
6313
6230
6137
6029
5922
5814
5713
5577
5445
5301
5157
5007
4846
4668
4499
4336
4180
3997
3820
3638
3459
3276
3087
2892
2709
2539
2375
2193
2026
1861
1707
1556
1402
1250
1110
990
864
734
616
504
401
301
193
91
0
-72
-152
-236
-314
-387
-454
-520
-597
-663
-722
-754
-818
-867
-916
-957
-994
-1032
-1077
-1115
-1146
-1160
-1204
-1234
-1270
-1297
-1323
-1351
-1389
-1414
-1428
-1431
-1456
-1471
-1487
-1499
-1511
-1528
-1550
-1561
-1561
-1557
-1574
-1580
-1588
-1590
-1593
-1604
-1617
-1621
-1608
-1608
-1618
-1622
-1626
-1626
-1629
-1644
-1659
-1668
-1662
-1668
-1680
-1688
-1694
-1698
-1703
-1723
-1734
-1738
-1719
-1734
-1737
-1742
-1742
-1741
-1742
-1752
-1756
-1756
-1738
-1755
-1756
-1764
-1762
-1760
-1761
-1772
-1772
-1763
-1746
-1749
-1745
-1742
-1733
-1725
-1723
-1726
-1719
-1698
-1677
-1675
-1663
-1652
-1637
-1622
-1618
-1615
-1605
-1578
-1565
-1561
-1553
-1545
-1534
-1525
-1526
-1525
-1517
-1494
-1483
-1477
-1469
-1458
-1446
-1437
-1444
-1440
-1431
-1400
-1401
-1392
-1384
-1373
-1360
-1350
-1351
-1345
-1334
-1305
-1314
-1307
-1306
-1300
-1295
-1296
-1308
-1310
-1306
-1297
-1307
-1308
-1312
-1309
-1306
-1309
-1316
-1313
-1296
-1281
-1285
-1278
-1272
-1261
-1251
-1251
-1251
-1242
-1214
-1203
-1199
-1191
-1183
-1174
-1168
-1172
-1176
-1175
-1160
-1159
-1160
-1162
-1161
-1158
-1157
-1173
-1176
-1173
-1147
-1149
-1143
-1137
-1126
-1115
-1105
-1106
-1098
-1084
-1051
-1056
-1042
-1033
-1017
-1002
-994
-994
-989
-977
-964
-974
-975
-981
-981
-982
-990
-1003
-1005
-994
-985
-993
-991
-987
-976
-965
-964
-962
-953
-925
-914
-911
-905
-897
-889
-881
-881
-881
-877
-858
-859
-862
-868
-871
-875
-882
-905
-918
-924
-910
-923
-927
-933
-932
-931
-932
-945
-944
-935
-905
-912
-900
-892
-877
-863
-855
-853
-846
-831
-812
-815
-808
-805
-798
-794
-800
-813
-820
-814
-814
-831
-837
-842
-840
-838
-844
-846
-839
-811
-800
-792
-778
-762
-743
-725
-712
-698
-678
-640
-625
-606
-589
-566
-540
-516
-505
-484
-456
-412
-392
-367
-346
-321
-298
-278
-272
-253
-229
-183
-175
-149
-127
-99
-72
-49
-32
-9
22
57
69
92
110
131
149
156
155
160
179
190
185
188
189
194
198
189
182
183
203
207
209
217
227
244
260
271
285
305
345
360
381
399
422
445
466
473
487
506
537
543
554
561
573
583
589
580
584
594
621
613
620
622
629
635
637
634
638
654
673
672
682
690
704
716
718
717
724
745
760
760
768
774
782
786
777
770
767
782
781
773
770
768
768
768
758
750
748
768
760
761
761
769
779
789
787
795
807
833
833
840
843
852
861
864
853
856
865
889
880
883
882
886
889
887
879
879
888
900
889
889
886
887
887
879
868
866
880
887
881
882
882
886
887
874
864
859
871
866
854
845
836
828
818
795
774
756
760
730
710
686
667
649
628
598
574
555
552
524
507
486
473
461
447
418
403
396
401
379
367
351
338
324
303
276
258
249
241
211
190
165
144
120
87
50
21
9
-12
-46
-71
-95
-114
-133
-162
-185
-200
-196
-203
-216
-224
-232
-238
-246
-267
-283
-295
-283
-306
-318
-332
-342
-353
-366
-390
-409
-422
-420
-448
-463
-484
-496
-507
-522
-549
-562
-566
-559
-574
-578
-582
-579
-576
-578
-585
-583
-569
-555
-563
-563
-566
-565
-566
-577
-592
-600
-593
-599
-618
-632
-646
-658
-672
-698
-720
-735
-732
-741
-754
-764
-771
-775
-781
-799
-808
-811
-789
-803
-804
-809
-809
-810
-815
-831
-842
-848
-837
-858
-864
-876
-880
-884
-894
-914
-922
-922
-912
-920
-917
-913
-900
-886
-877
-871
-854
-826
-796
-784
-762
-741
-714
-689
-673
-658
-637
-600
-578
-567
-552
-536
-517
-501
-496
-490
-478
-453
-440
-435
-430
-423
-415
-407
-414
-409
-399
-363
-360
-345
-333
-315
-295
-277
-268
-252
-230
-190
-185
-165
-151
-131
-113
-102
-103
-95
-81
-61
-63
-58
-55
-48
-42
-44
-53
-53
-39
-26
-31
-24
-16
0
16
24
33
51
87
107
120
136
154
174
192
199
205
214
236
241
241
239
240
240
238
219
212
209
229
217
214
209
211
213
214
206
209
219
251
246
259
268
283
296
303
301
307
322
340
337
341
343
347
349
344
333
330
340
347
335
332
327
327
325
313
301
297
311
311
306
306
308
314
319
316
314
316
331
330
326
321
319
318
314
294
284
278
291
275
265
253
244
234
222
198
186
179
192
167
160
149
145
142
134
120
114
118
128
119
119
117
119
119
112
99
94
102
107
95
92
88
87
84
69
54
46
55
47
32
21
10
2
-7
-23
-40
-50
-44
-55
-63
-71
-72
-70
-70
-84
-88
-88
-69
-77
-79
-84
-86
-87
-92
-109
-114
-115
-98
-120
-126
-138
-144
-153
-167
-186
-198
-200
-197
-215
-223
-233
-237
-241
-251
-264
-264
-249
-237
-241
-237
-235
-229
-225
-235
-243
-245
-227
-228
-234
-237
-240
-242
-248
-264
-281
-295
-292
-312
-326
-341
-348
-352
-358
-376
-383
-384
-366
-373
-372
-372
-367
-362
-359
-372
-372
-367
-345
-361
-362
-368
-369
-373
-383
-399
-409
-409
-406
-427
-438
-453
-463
-474
-493
-513
-523
-515
-510
-518
-515
-510
-499
-488
-485
-479
-464
-427
-406
-389
-368
-346
-324
-303
-293
-282
-267
-232
-226
-214
-206
-193
-183
-177
-185
-187
-184
-165
-171
-167
-166
-157
-146
-137
-143
-134
-118
-84
-82
-67
-55
-38
-21
-10
-6
4
22
40
34
38
38
44
47
41
30
28
40
44
32
27
23
23
23
11
3
5
25
31
32
38
44
54
62
60
60
65
92
87
92
92
98
104
105
94
90
91
108
100
101
98
102
106
106
90
89
95
117
112
119
125
137
149
155
158
170
191
216
217
230
242
259
274
280
282
292
315
329
329
336
342
352
359
354
350
352
370
371
365
363
362
363
365
357
356
362
393
391
401
408
418
427
432
424
421
417
425
401
384
360
341
320
295
256
233
220
222
204
200
198
203
207
207
201
204
218
236
235
247
260
283
310
331
354
390
446
498
544
603
668
743
825
902
988
1090
1216
1336
1455
1581
1713
1849
1988
2118
2260
2413
2598
2757
2938
3126
3330
3546
3769
3992
4230
4484
4768
5032
5316
5594
5873
6137
6375
6574
6755
6912
7047
7126
7187
7220
7233
7225
7192
7140
7087
7042
6994
6922
6858
6791
6726
6653
6563
6466
6371
6289
6190
6076
5961
5840
5715
5578
5422
5260
5096
4939
4763
4575
4384
4191
3994
3791
3571
3357
3146
2957
2732
2515
2296
2083
1874
1665
1452
1252
1062
895
702
531
361
206
58
-88
-237
-366
-481
-582
-698
-801
-902
-994
-1083
-1174
-1268
-1349
-1414
-1476
-1555
-1621
-1686
-1746
-1807
-1877
-1947
-2008
-2050
-2103
-2162
-2212
-2259
-2300
-2339
-2385
-2426
-2459
-2474
-2498
-2523
-2542
-2556
-2564
-2571
-2591
-2599
-2602
-2581
-2592
-2594
-2597
-2596
-2595
-2598
-2611
-2618
-2621
-2606
-2629
-2635
-2649
-2655
-2663
-2674
-2694
-2702
-2699
-2689
-2697
-2694
-2691
-2681
-2669
-2661
-2658
-2643
-2613
-2581
-2567
-2542
-2517
-2488
-2460
-2442
-2425
-2400
-2356
-2327
-2305
-2278
-2251
-2222
-2197
-2182
-2167
-2147
-2113
-2092
-2073
-2053
-2027
-2000
-1973
-1962
-1940
-1913
-1863
-1844
-1815
-1788
-1757
-1725
-1695
-1677
-1652
-1623
-1576
-1570
-1546
-1531
-1510
-1493
-1482
-1479
-1471
-1456
-1439
-1444
-1441
-1442
-1436
-1431
-1432
-1437
-1431
-1410
-1390
-1386
-1371
-1356
-1335
-1315
-1305
-1294
-1274
-1235
-1214
-1200
-1183
-1166
-1149
-1135
-1132
-1129
-1122
-1101
-1096
-1095
-1095
-1092
-1088
-1088
-1104
-1109
-1108
-1086
-1091
-1087
-1084
-1074
-1063
-1054
-1055
-1045
-1029
-992
-994
-977
-964
-944
-926
-914
-908
-898
-881
-862
-864
-858
-855
-848
-842
-844
-853
-852
-837
-826
-832
-827
-821
-808
-794
-788
-779
-761
-722
-700
-683
-662
-641
-618
-596
-583
-570
-554
-522
-512
-500
-493
-482
-472
-467
-479
-481
-479
-460
-465
-464
-464
-460
-454
-449
-457
-451
-438
-401
-401
-381
-363
-339
-313
-294
-281
-261
-235
-205
-197
-181
-169
-154
-141
-138
-141
-136
-118
-105
-110
-106
-103
-95
-88
-92
-93
-87
-61
-53
-49
-40
-30
-17
-4
1
8
22
54
60
71
77
87
96
102
91
89
91
107
99
96
90
89
86
78
55
43
38
52
30
23
14
10
4
-7
-23
-30
-29
-23
-40
-45
-52
-53
-56
-69
-86
-96
-91
-92
-108
-116
-124
-127
-131
-147
-161
-168
-157
-164
-178
-187
-195
-201
-207
-221
-232
-237
-221
-233
-236
-241
-240
-238
-237
-247
-247
-242
-222
-226
-223
-225
-221
-220
-222
-238
-241
-236
-215
-224
-220
-220
-215
-211
-214
-222
-223
-214
-202
-212
-210
-209
-203
-199
-204
-212
-210
-194
-185
-188
-182
-176
-164
-153
-154
-151
-144
-120
-113
-113
-110
-106
-99
-94
-100
-103
-103
-82
-96
-100
-109
-112
-114
-118
-132
-137
-135
-118
-125
-121
-121
-113
-104
-97
-103
-94
-77
-46
-43
-30
-21
-8
4
9
8
16
35
56
55
64
69
78
84
81
74
77
98
111
114
125
139
159
178
186
198
220
261
288
311
337
366
399
429
446
468
492
540
551
572
589
611
630
646
648
655
663
684
675
675
669
671
673
671
656
654
659
676
669
670
669
672
674
670
659
657
664
671
654
645
632
622
609
585
557
536
530
513
484
459
433
411
386
350
318
293
285
266
244
226
212
201
190
167
152
140
153
129
117
101
89
77
62
35
14
-4
-4
-36
-55
-79
-95
-112
-132
-163
-181
-191
-192
-213
-224
-236
-240
-243
-251
-262
-263
-250
-235
-240
-234
-229
-220
-212
-214
-219
-216
-196
-190
-194
-194
-194
-191
-191
-204
-214
-220
-211
-214
-224
-233
-240
-244
-250
-269
-278
-280
-257
-266
-263
-261
-253
-244
-238
-242
-239
-232
-208
-218
-213
-215
-210
-207
-211
-226
-232
-231
-224
-239
-247
-257
-262
-268
-279
-295
-300
-292
-283
-292
-290
-287
-276
-264
-261
-257
-245
-215
-201
-196
-187
-179
-169
-161
-163
-164
-159
-141
-137
-140
-142
-142
-142
-145
-164
-172
-175
-155
-166
-167
-169
-166
-163
-161
-168
-167
-158
-129
-134
-121
-113
-98
-85
-78
-81
-76
-63
-47
-53
-51
-53
-51
-51
-59
-74
-81
-75
-72
-88
-94
-101
-104
-108
-121
-133
-137
-123
-123
-130
-132
-131
-126
-123
-127
-130
-127
-111
-110
-112
-115
-115
-115
-118
-138
-146
-150
-133
-146
-151
-159
-164
-169
-179
-201
-213
-219
-203
-225
-227
-234
-232
-230
-232
-239
-238
-228
-212
-215
-208
-203
-193
-183
-181
-186
-182
-166
-155
-165
-166
-170
-169
-170
-183
-198
-208
-200
-211
-228
-241
-252
-259
-265
-277
-288
-292
-280
-286
-291
-297
-296
-294
-293
-307
-310
-307
-284
-289
-287
-289
-288
-287
-291
-309
-317
-320
-304
-328
-336
-349
-357
-368
-386
-410
-426
-433
-434
-454
-464
-474
-479
-482
-493
-507
-510
-499
-490
-498
-497
-495
-488
-482
-488
-493
-491
-471
-469
-472
-471
-469
-465
-461
-465
-469
-469
-451
-454
-454
-452
-443
-431
-420
-422
-411
-395
-360
-349
-330
-314
-294
-273
-255
-251
-234
-212
-173
-171
-155
-146
-131
-119
-114
-116
-111
-99
-84
-92
-89
-90
-86
-84
-90
-98
-96
-78
-63
-62
-52
-41
-25
-10
-6
0
12
43
57
66
78
89
102
112
113
114
118
140
135
134
130
131
132
130
114
107
105
120
111
110
108
113
120
127
120
128
144
178
178
192
203
218
232
242
245
255
274
296
294
302
305
312
315
309
296
291
300
302
289
283
278
278
276
263
254
253
273
279
280
287
296
308
318
317
317
322
348
342
343
341
343
344
341
326
317
312
321
305
297
285
281
277
271
249
243
245
263
250
251
249
254
260
261
258
264
280
298
293
299
301
307
311
305
296
294
306
310
299
293
287
285
280
263
248
239
249
244
234
229
225
225
225
215
209
210
234
226
230
232
238
244
246
236
231
231
245
232
230
223
222
220
213
192
185
183
193
177
171
163
160
156
148
136
132
140
152
142
144
145
152
160
159
155
158
177
186
182
183
183
186
186
174
164
159
170
166
154
144
133
122
109
82
62
46
56
32
21
7
1
-5
-12
-28
-38
-40
-25
-39
-39
-44
-40
-36
-36
-50
-53
-48
-34
-43
-43
-44
-42
-41
-47
-60
-67
-63
-58
-76
-83
-91
-92
-94
-104
-115
-117
-103
-99
-105
-103
-98
-89
-81
-85
-87
-83
-64
-59
-62
-64
-65
-66
-70
-90
-101
-110
-94
-116
-128
-143
-155
-168
-183
-208
-225
-236
-229
-254
-263
-277
-283
-289
-298
-318
-325
-323
-313
-324
-325
-329
-328
-329
-337
-351
-357
-350
-344
-357
-360
-365
-365
-367
-378
-392
-397
-386
-387
-396
-398
-398
-391
-384
-384
-381
-370
-342
-325
-313
-300
-284
-266
-250
-249
-238
-224
-187
-186
-176
-171
-162
-155
-151
-158
-159
-155
-133
-146
-142
-144
-138
-133
-131
-139
-134
-120
-97
-93
-79
-67
-49
-31
-21
-18
-6
19
43
47
60
69
82
92
89
83
84
102
103
97
95
94
95
93
81
69
63
71
66
58
53
52
55
59
48
49
57
87
85
92
95
101
104
101
82
68
54
56
19
-2
-29
-47
-65
-85
-109
-119
-113
-97
-97
-86
-75
-57
-39
-27
-20
0
36
73
94
129
164
207
252
290
333
389
467
535
602
681
768
863
964
1064
1172
1292
1435
1567
1702
1842
1991
2146
2306
2460
2634
2823
3044
3248
3473
3708
3959
4221
4493
4765
5059
5366
5695
5982
6276
6546
6797
7018
7200
7343
7458
7549
7613
7630
7634
7614
7583
7540
7483
7416
7357
7309
7258
7184
7112
7031
6946
6852
6742
6627
6514
6414
6288
6149
6004
5851
5692
5523
5337
5143
4947
4760
4548
4331
4109
3890
3670
3447
3208
2980
2757
2555
2330
2115
1903
1701
1506
1315
1117
938
770
628
455
306
160
29
-97
-222
-346
-459
-558
-648
-754
-847
-939
-1023
-1103
-1188
-1273
-1345
-1401
-1459
-1532
-1594
-1656
-1711
-1767
-1832
-1895
-1947
-1978
-2024
-2072
-2114
-2152
-2185
-2217
-2253
-2284
-2306
-2308
-2329
-2343
-2357
-2362
-2364
-2367
-2384
-2389
-2387
-2368
-2373
-2369
-2368
-2360
-2353
-2351
-2364
-2366
-2364
-2343
-2360
-2360
-2364
-2362
-2359
-2361
-2367
-2365
-2353
-2337
-2340
-2330
-2323
-2307
-2293
-2285
-2281
-2267
-2239
-2217
-2210
-2195
-2180
-2160
-2143
-2138
-2131
-2117
-2087
-2077
-2074
-2070
-2066
-2062
-2059
-2064
-2067
-2062
-2034
-2032
-2020
-2008
-1987
-1963
-1939
-1924
-1899
-1868
-1819
-1793
-1760
-1730
-1695
-1661
-1633
-1623
-1600
-1572
-1528
-1519
-1497
-1479
-1459
-1441
-1430
-1427
-1419
-1402
-1382
-1383
-1375
-1369
-1357
-1346
-1344
-1345
-1337
-1313
-1296
-1294
-1283
-1272
-1254
-1237
-1230
-1219
-1201
-1163
-1143
-1130
-1115
-1099
-1082
-1068
-1064
-1059
-1050
-1020
-1025
-1021
-1022
-1016
-1010
-1008
-1016
-1016
-1010
-986
-986
-976
-969
-955
-940
-929
-931
-920
-901
-866
-860
-841
-825
-805
-787
-774
-767
-752
-729
-703
-701
-688
-681
-669
-661
-663
-672
-674
-661
-659
-670
-673
-674
-671
-670
-681
-686
-685
-666
-661
-662
-658
-653
-645
-638
-642
-641
-635
-606
-612
-608
-609
-606
-603
-604
-616
-623
-626
-615
-631
-638
-651
-656
-662
-670
-691
-696
-693
-676
-683
-678
-673
-664
-654
-650
-651
-643
-623
-600
-597
-583
-572
-556
-543
-541
-544
-540
-521
-515
-521
-522
-523
-523
-525
-540
-553
-559
-549
-551
-560
-564
-565
-563
-560
-569
-572
-570
-544
-553
-549
-548
-541
-533
-529
-534
-534
-529
-509
-522
-524
-533
-536
-540
-549
-571
-580
-582
-573
-588
-593
-600
-602
-605
-612
-625
-626
-614
-598
-602
-594
-588
-576
-566
-565
-568
-561
-539
-529
-529
-523
-517
-508
-502
-508
-515
-517
-506
-507
-516
-523
-526
-526
-528
-543
-548
-548
-522
-530
-525
-521
-509
-496
-485
-484
-477
-465
-435
-440
-430
-427
-417
-408
-404
-411
-409
-400
-387
-396
-399
-405
-407
-411
-423
-439
-445
-438
-430
-440
-439
-438
-431
-425
-427
-431
-424
-400
-390
-388
-382
-375
-366
-360
-365
-369
-368
-353
-350
-352
-354
-353
-350
-351
-367
-373
-373
-349
-357
-352
-346
-333
-315
-296
-285
-264
-237
-188
-173
-139
-111
-75
-39
-9
12
41
78
117
136
161
181
206
229
244
253
270
298
323
327
339
349
364
379
386
394
412
450
474
494
520
548
580
611
633
655
682
723
750
773
795
818
841
860
860
871
885
919
922
933
942
953
964
971
965
967
975
1003
993
1001
1006
1019
1030
1036
1033
1037
1049
1064
1058
1061
1060
1063
1064
1056
1040
1033
1038
1039
1019
1008
995
984
971
947
921
903
902
883
856
833
812
794
776
751
728
712
713
697
682
668
658
650
638
611
596
585
595
576
565
550
539
527
512
483
463
448
453
418
400
376
359
339
313
282
258
243
235
207
192
175
165
156
140
120
108
109
106
85
74
63
57
49
31
13
2
9
-2
-18
-31
-44
-54
-67
-88
-109
-126
-126
-147
-165
-186
-201
-215
-229
-258
-273
-282
-271
-286
-293
-302
-305
-308
-314
-333
-339
-340
-321
-339
-340
-347
-347
-350
-359
-375
-386
-388
-386
-405
-414
-425
-431
-437
-451
-469
-477
-469
-464
-473
-471
-469
-460
-450
-452
-453
-446
-421
-413
-411
-406
-400
-392
-385
-388
-391
-390
-371
-379
-383
-391
-394
-397
-403
-424
-436
-443
-432
-445
-451
-458
-459
-458
-459
-473
-471
-462
-435
-442
-435
-432
-425
-419
-419
-425
-423
-412
-398
-406
-404
-404
-401
-400
-409
-424
-430
-423
-422
-435
-439
-441
-438
-435
-443
-445
-439
-412
-400
-392
-378
-360
-338
-315
-300
-283
-260
-217
-205
-185
-168
-146
-123
-103
-95
-80
-61
-27
-18
-3
7
21
31
33
19
18
21
39
23
19
11
7
4
-2
-10
-6
14
41
52
76
101
133
165
190
214
250
303
353
391
442
498
565
637
702
780
877
1007
1139
1281
1442
1616
1806
2006
2207
2421
2648
2904
3134
3378
3622
3876
4133
4391
4640
4896
5156
5431
5679
5936
6186
6440
6688
6929
7153
7390
7632
7885
8106
8329
8533
8717
8872
8993
9081
9150
9204
9236
9224
9205
9166
9118
9056
8976
8887
8802
8731
8649
8549
8448
8338
8220
8089
7935
7773
7604
7438
7245
7036
6820
6596
6365
6125
5865
5604
5342
5096
4811
4535
4255
3982
3714
3448
3177
2918
2669
2442
2194
1963
1734
1518
1306
1094
873
670
479
303
108
-72
-249
-415
-576
-737
-897
-1042
-1170
-1289
-1423
-1540
-1652
-1751
-1844
-1939
-2030
-2107
-2161
-2221
-2287
-2344
-2398
-2447
-2496
-2554
-2606
-2651
-2678
-2715
-2756
-2793
-2826
-2855
-2884
-2923
-2953
-2975
-2971
-3000
-3015
-3032
-3042
-3049
-3058
-3074
-3084
-3087
-3072
-3086
-3087
-3092
-3088
-3087
-3089
-3105
-3110
-3109
-3100
-3113
-3119
-3127
-3131
-3134
-3144
-3159
-3164
-3156
-3147
-3157
-3155
-3153
-3144
-3134
-3133
-3133
-3124
-3098
-3084
-3078
-3066
-3053
-3035
-3019
-3014
-3006
-2992
-2964
-2948
-2940
-2931
-2922
-2912
-2903
-2910
-2907
-2899
-2866
-2867
-2856
-2847
-2832
-2817
-2804
-2800
-2788
-2771
-2735
-2733
-2714
-2702
-2681
-2661
-2647
-2643
-2629
-2607
-2579
-2570
-2553
-2539
-2519
-2501
-2490
-2487
-2474
-2450
-2425
-2421
-2405
-2389
-2367
-2345
-2332
-2319
-2298
-2258
-2232
-2213
-2189
-2162
-2133
-2104
-2084
-2061
-2034
-1992
-1964
-1941
-1918
-1894
-1868
-1845
-1838
-1820
-1798
-1753
-1740
-1719
-1699
-1675
-1651
-1629
-1616
-1596
-1570
-1523
-1513
-1486
-1464
-1436
-1410
-1391
-1381
-1363
-1337
-1306
-1296
-1276
-1259
-1238
-1218
-1206
-1199
-1183
-1153
-1125
-1114
-1094
-1074
-1049
-1027
-1015
-1004
-986
-949
-929
-915
-896
-876
-853
-832
-820
-808
-793
-765
-753
-745
-739
-730
-721
-715
-725
-724
-718
-690
-692
-687
-683
-673
-662
-651
-650
-638
-620
-581
-580
-560
-547
-527
-509
-497
-494
-483
-463
-439
-436
-426
-419
-410
-404
-407
-417
-419
-409
-400
-409
-409
-408
-402
-396
-401
-406
-402
-378
-370
-367
-359
-350
-338
-327
-325
-323
-317
-297
-296
-295
-294
-290
-285
-283
-298
-304
-307
-292
-306
-314
-324
-329
-333
-339
-356
-360
-357
-332
-345
-340
-338
-329
-320
-316
-318
-310
-294
-273
-274
-268
-265
-259
-256
-263
-276
-281
-274
-272
-287
-294
-304
-310
-318
-339
-357
-366
-355
-361
-369
-372
-371
-365
-360
-360
-357
-349
-323
-319
-311
-304
-293
-280
-271
-278
-277
-272
-252
-258
-257
-260
-259
-258
-261
-277
-280
-277
-255
-269
-267
-267
-260
-251
-245
-244
-234
-213
-187
-182
-166
-154
-138
-123
-117
-115
-106
-84
-69
-72
-69
-68
-64
-63
-74
-84
-86
-69
-71
-77
-80
-81
-81
-81
-88
-93
-91
-68
-70
-64
-59
-46
-31
-18
-18
-10
3
32
36
47
55
67
80
88
82
89
102
130
121
126
126
131
134
131
122
120
127
140
131
134
136
145
154
157
159
171
200
224
233
251
267
289
308
315
324
339
372
387
395
406
416
429
440
442
446
454
484
484
492
499
514
529
543
546
557
574
608
619
640
658
682
705
724
726
741
761
796
798
811
820
832
841
842
836
835
841
848
831
822
808
798
786
765
741
726
726
718
697
685
673
667
660
643
630
623
633
627
615
606
596
588
578
557
539
525
533
507
490
469
453
435
415
384
360
340
338
309
292
270
256
243
227
198
185
180
190
175
171
166
166
166
161
149
145
151
160
144
139
130
124
116
97
74
58
57
45
19
-1
-19
-34
-48
-72
-91
-103
-96
-102
-114
-120
-125
-125
-124
-135
-140
-139
-113
-123
-123
-128
-128
-130
-137
-154
-164
-170
-159
-178
-185
-200
-208
-217
-232
-260
-274
-279
-272
-287
-290
-293
-291
-288
-291
-299
-297
-283
-268
-275
-270
-269
-262
-257
-263
-274
-277
-266
-266
-278
-285
-290
-292
-296
-312
-327
-336
-332
-340
-356
-368
-378
-385
-392
-412
-423
-428
-407
-421
-422
-424
-421
-416
-413
-419
-419
-414
-392
-404
-402
-408
-408
-409
-415
-434
-442
-443
-437
-452
-460
-472
-479
-487
-503
-524
-534
-531
-525
-537
-537
-538
-532
-528
-532
-537
-534
-513
-504
-504
-499
-492
-483
-477
-483
-488
-489
-476
-476
-481
-485
-487
-488
-491
-510
-521
-528
-511
-526
-529
-532
-529
-523
-517
-519
-512
-498
-464
-464
-448
-438
-420
-403
-391
-389
-379
-361
-338
-338
-331
-329
-323
-321
-328
-341
-347
-340
-334
-350
-356
-363
-364
-366
-376
-387
-387
-367
-360
-358
-349
-338
-321
-307
-303
-299
-289
-264
-253
-247
-240
-230
-220
-214
-226
-227
-224
-200
-207
-204
-204
-197
-189
-183
-187
-181
-169
-137
-142
-127
-117
-97
-77
-62
-54
-37
-11
17
25
41
52
68
81
84
81
86
103
116
110
112
110
112
111
99
87
84
101
102
97
97
101
108
114
113
113
121
144
153
162
172
185
198
209
202
206
214
242
239
243
244
249
254
256
244
241
243
264
245
244
237
236
234
227
214
208
213
222
213
213
210
214
218
217
211
213
229
241
235
237
237
242
245
236
227
225
241
239
230
224
219
214
207
192
177
166
173
162
154
144
140
138
135
118
113
115
137
134
138
140
146
153
157
147
146
150
174
159
160
157
158
158
151
137
129
128
131
112
102
90
84
78
65
48
42
51
58
48
49
51
58
65
61
59
64
88
92
89
88
86
85
82
71
59
52
64
51
42
29
21
13
1
-25
-40
-50
-41
-55
-61
-67
-66
-65
-65
-78
-76
-66
-35
-40
-29
-22
-9
0
2
-2
-2
6
16
3
0
-7
-10
-14
-28
-47
-58
-54
-57
-74
-81
-87
-86
-85
-94
-101
-101
-81
-77
-77
-74
-70
-64
-61
-67
-71
-72
-54
-65
-69
-77
-80
-81
-86
-103
-111
-115
-103
-115
-121
-131
-135
-139
-146
-167
-173
-172
-151
-163
-159
-159
-154
-150
-152
-159
-160
-151
-137
-144
-140
-138
-131
-127
-133
-143
-145
-132
-126
-135
-137
-139
-137
-137
-150
-162
-167
-156
-160
-169
-173
-175
-171
-167
-171
-172
-167
-139
-144
-138
-137
-130
-121
-115
-122
-120
-115
-95
-101
-99
-103
-100
-99
-101
-119
-122
-117
-98
-108
-107
-108
-105
-102
-103
-108
-101
-81
-55
-47
-24
-2
27
55
75
89
112
149
177
191
211
230
252
271
276
281
291
317
327
329
335
341
349
354
348
347
349
376
370
375
378
387
397
405
404
411
423
450
449
459
464
476
487
492
482
484
492
511
503
503
500
500
498
489
474
467
469
474
456
449
439
436
431
419
406
402
416
421
416
418
421
428
431
422
416
415
429
430
424
420
418
417
414
396
383
373
386
362
349
334
325
315
304
284
270
262
272
253
248
240
241
242
240
226
223
227
241
232
230
226
226
225
219
205
201
206
213
197
190
179
173
164
144
122
108
111
102
84
72
62
57
51
34
20
14
24
23
16
13
13
15
16
1
-5
-9
12
-4
-8
-16
-18
-22
-28
-46
-58
-67
-57
-82
-92
-107
-114
-120
-131
-151
-160
-161
-154
-166
-168
-171
-168
-165
-167
-175
-174
-161
-150
-160
-162
-166
-166
-168
-180
-195
-202
-192
-197
-212
-223
-234
-242
-252
-271
-287
-295
-288
-291
-297
-300
-300
-296
-293
-305
-305
-301
-273
-278
-273
-270
-263
-257
-255
-266
-271
-272
-255
-276
-281
-292
-296
-304
-317
-339
-353
-359
-359
-377
-385
-394
-396
-396
-403
-414
-414
-401
-387
-391
-384
-377
-366
-356
-356
-356
-349
-325
-316
-316
-313
-309
-304
-301
-307
-313
-315
-304
-309
-318
-329
-336
-342
-349
-371
-381
-383
-361
-369
-367
-366
-360
-353
-349
-356
-354
-346
-318
-327
-318
-315
-306
-300
-301
-311
-315
-312
-307
-323
-330
-341
-346
-353
-368
-389
-401
-399
-397
-412
-416
-417
-409
-401
-402
-401
-390
-360
-345
-335
-320
-301
-278
-256
-241
-225
-204
-168
-148
-129
-110
-87
-62
-41
-35
-17
5
47
60
81
100
124
149
172
184
208
239
292
307
340
368
402
433
458
476
500
530
562
573
591
603
619
632
635
631
636
652
664
656
657
656
659
659
647
637
633
649
648
642
642
642
646
649
644
639
638
653
645
640
632
629
625
618
594
579
567
573
551
535
516
501
485
468
437
419
408
417
389
378
362
350
335
312
280
252
232
216
178
151
120
96
73
45
16
2
9
16
10
14
18
28
36
32
27
28
50
58
63
78
98
127
160
191
229
279
354
412
485
565
661
768
883
993
1122
1265
1432
1580
1739
1899
2069
2243
2417
2582
2767
2964
3187
3383
3602
3827
4068
4318
4574
4837
5120
5423
5733
6021
6312
6585
6839
7063
7245
7389
7506
7604
7666
7686
7690
7676
7649
7608
7547
7482
7419
7370
7303
7227
7146
7057
6958
6848
6720
6588
6455
6336
6178
6019
5849
5676
5497
5307
5100
4896
4694
4503
4285
4072
3854
3639
3421
3198
2959
2733
2513
2309
2074
1854
1633
1421
1213
1005
798
604
427
260
76
-91
-253
-402
-545
-688
-826
-948
-1047
-1145
-1250
-1341
-1428
-1506
-1581
-1664
-1740
-1807
-1854
-1914
-1978
-2037
-2095
-2150
-2207
-2274
-2336
-2393
-2426
-2490
-2542
-2596
-2641
-2685
-2729
-2781
-2823
-2857
-2872
-2908
-2930
-2952
-2961
-2967
-2974
-2992
-2993
-2985
-2961
-2964
-2955
-2947
-2934
-2922
-2915
-2915
-2908
-2893
-2876
-2883
-2879
-2879
-2874
-2871
-2876
-2883
-2882
-2866
-2858
-2863
-2861
-2858
-2848
-2838
-2837
-2830
-2813
-2776
-2752
-2733
-2709
-2684
-2656
-2631
-2618
-2600
-2578
-2532
-2521
-2500
-2483
-2460
-2437
-2417
-2406
-2388
-2364
-2323
-2308
-2282
-2260
-2230
-2201
-2177
-2166
-2142
-2109
-2065
-2044
-2013
-1984
-1949
-1916
-1889
-1868
-1838
-1798
-1756
-1738
-1710
-1686
-1658
-1632
-1616
-1604
-1584
-1550
-1528
-1518
-1503
-1488
-1470
-1454
-1451
-1446
-1435
-1410
-1398
-1393
-1384
-1374
-1360
-1345
-1343
-1332
-1313
-1269
-1258
-1235
-1215
-1189
-1164
-1143
-1132
-1114
-1092
-1053
-1045
-1025
-1012
-991
-972
-959
-959
-947
-927
-899
-894
-879
-867
-850
-834
-824
-820
-806
-778
-749
-740
-718
-698
-671
-645
-629
-616
-596
-561
-540
-529
-514
-500
-484
-470
-470
-468
-462
-442
-436
-438
-439
-438
-435
-434
-447
-451
-449
-423
-430
-427
-425
-417
-409
-402
-403
-397
-385
-353
-356
-345
-340
-330
-322
-320
-330
-330
-322
-308
-315
-314
-317
-317
-319
-328
-345
-352
-348
-344
-360
-365
-372
-372
-374
-385
-397
-402
-389
-388
-394
-395
-393
-387
-382
-388
-392
-391
-376
-375
-380
-384
-386
-388
-392
-413
-425
-433
-419
-439
-450
-464
-475
-485
-497
-520
-534
-542
-529
-552
-557
-567
-568
-569
-574
-586
-587
-581
-569
-578
-578
-582
-581
-583
-593
-610
-618
-614
-610
-625
-632
-642
-648
-657
-678
-700
-715
-713
-726
-745
-759
-770
-779
-788
-805
-819
-827
-818
-823
-829
-833
-833
-831
-831
-848
-853
-856
-839
-853
-860
-870
-875
-880
-888
-907
-917
-921
-904
-927
-931
-941
-942
-942
-945
-953
-951
-938
-919
-919
-910
-903
-890
-877
-870
-870
-860
-837
-817
-816
-808
-802
-793
-786
-792
-800
-801
-785
-786
-794
-798
-802
-805
-809
-822
-835
-842
-833
-840
-846
-851
-848
-842
-838
-849
-848
-841
-814
-815
-810
-806
-798
-789
-785
-794
-792
-786
-760
-774
-771
-773
-768
-764
-764
-771
-772
-763
-752
-760
-759
-760
-754
-746
-745
-747
-737
-712
-689
-682
-666
-648
-625
-603
-591
-575
-550
-504
-476
-452
-423
-392
-359
-328
-305
-282
-253
-206
-182
-153
-125
-92
-56
-24
-6
23
58
112
143
183
223
268
315
358
389
431
477
542
569
612
650
692
731
763
786
813
846
880
891
910
924
942
958
963
962
969
988
1000
997
1002
1005
1013
1021
1018
1018
1025
1053
1065
1071
1080
1088
1098
1106
1104
1103
1105
1126
1119
1117
1110
1108
1105
1098
1076
1063
1055
1063
1047
1040
1030
1027
1026
1022
1006
1005
1012
1039
1033
1043
1052
1067
1080
1087
1087
1092
1106
1122
1114
1116
1113
1114
1113
1102
1086
1077
1081
1078
1059
1047
1034
1025
1015
994
977
966
975
967
954
945
937
933
927
914
903
899
916
902
896
885
878
872
861
838
823
813
818
799
787
772
762
751
736
704
686
675
679
653
641
626
615
602
582
558
541
536
534
511
500
489
484
478
462
442
430
433
427
408
396
385
377
369
348
330
317
322
311
293
279
265
254
242
221
204
192
204
183
175
163
159
157
152
139
133
133
149
139
140
135
136
136
130
110
103
103
114
96
88
75
66
54
35
10
-8
-15
-19
-43
-55
-67
-74
-80
-95
-112
-120
-111
-109
-118
-120
-122
-120
-120
-132
-142
-145
-133
-135
-143
-147
-149
-149
-150
-165
-173
-179
-161
-180
-189
-201
-207
-211
-217
-233
-241
-244
-229
-243
-245
-251
-250
-248
-251
-267
-268
-262
-246
-253
-253
-255
-255
-256
-262
-275
-279
-271
-261
-273
-275
-280
-282
-287
-303
-323
-334
-329
-334
-349
-357
-363
-365
-368
-383
-393
-396
-384
-382
-387
-388
-387
-384
-381
-394
-398
-399
-376
-389
-392
-398
-400
-402
-408
-425
-438
-448
-440
-467
-479
-496
-505
-513
-523
-542
-548
-544
-530
-536
-532
-529
-520
-512
-510
-512
-503
-482
-461
-460
-451
-444
-433
-424
-425
-428
-423
-402
-394
-395
-392
-388
-382
-378
-383
-386
-382
-362
-351
-343
-332
-316
-298
-281
-277
-265
-248
-208
-202
-185
-171
-153
-136
-123
-120
-113
-101
-71
-79
-72
-72
-65
-60
-60
-71
-72
-66
-54
-60
-59
-58
-51
-43
-41
-42
-34
-11
11
12
23
32
45
57
58
57
62
85
90
86
85
84
86
84
72
62
56
64
59
50
42
37
33
27
6
-3
-6
15
7
10
11
19
29
35
30
33
41
71
62
71
73
84
92
94
87
89
97
108
99
98
93
94
94
87
75
75
90
104
100
109
117
132
147
154
162
180
215
234
247
262
278
295
309
315
319
327
350
354
357
358
362
366
368
353
348
349
370
363
363
362
366
370
373
363
364
372
401
393
402
407
417
425
427
420
419
425
433
420
414
406
403
399
387
370
360
363
361
342
332
320
313
306
289
274
268
282
279
270
266
264
265
266
259
252
250
264
258
252
243
238
234
227
204
191
183
195
180
172
161
154
146
134
108
93
84
97
73
68
59
56
53
46
32
26
30
39
27
25
20
20
20
11
-5
-12
-7
-7
-24
-32
-41
-46
-52
-70
-87
-98
-92
-104
-122
-137
-150
-159
-169
-185
-200
-208
-197
-209
-215
-221
-219
-216
-215
-227
-229
-225
-206
-212
-212
-216
-217
-218
-224
-244
-253
-256
-242
-264
-273
-287
-296
-308
-326
-349
-364
-369
-368
-387
-393
-400
-402
-402
-410
-421
-422
-409
-401
-408
-406
-405
-400
-398
-409
-419
-425
-413
-419
-431
-439
-446
-452
-459
-475
-489
-499
-488
-504
-511
-519
-518
-513
-506
-510
-502
-487
-456
-448
-431
-417
-398
-378
-361
-359
-342
-319
-282
-278
-263
-253
-238
-226
-220
-220
-214
-198
-181
-186
-182
-182
-177
-175
-181
-190
-189
-173
-161
-162
-155
-147
-135
-124
-125
-125
-118
-94
-85
-83
-76
-68
-58
-50
-52
-52
-48
-22
-28
-25
-25
-19
-13
-10
-17
-18
-14
6
1
5
5
13
21
27
19
25
39
68
66
76
83
95
107
114
115
123
142
162
160
168
173
182
188
183
175
174
187
191
182
179
175
175
173
160
150
148
164
167
165
169
175
183
190
186
186
190
218
212
216
217
225
233
237
231
230
232
249
237
235
228
227
224
217
195
188
188
201
189
189
187
191
195
195
191
197
213
233
230
239
245
256
265
266
263
268
287
296
291
291
291
294
294
282
271
266
275
272
262
255
249
247
244
229
223
222
248
240
245
246
253
259
263
257
256
259
278
266
268
264
267
269
266
249
244
246
255
239
232
221
215
209
198
181
174
180
188
176
175
174
180
186
182
176
179
199
207
203
203
203
205
204
190
179
174
183
181
172
165
158
153
144
121
107
100
118
102
99
94
95
97
97
87
85
91
115
106
113
113
121
127
126
112
107
107
113
98
90
80
72
63
45
19
1
-6
-14
-42
-59
-76
-87
-97
-115
-133
-142
-132
-136
-148
-154
-158
-160
-163
-177
-190
-198
-193
-202
-218
-233
-247
-260
-274
-304
-322
-335
-324
-345
-356
-370
-378
-386
-397
-415
-424
-427
-409
-425
-423
-425
-418
-411
-407
-411
-406
-392
-371
-369
-357
-347
-334
-322
-317
-320
-314
-296
-280
-283
-277
-273
-264
-258
-263
-269
-269
-251
-249
-255
-255
-252
-244
-238
-238
-237
-229
-208
-200
-195
-191
-183
-174
-167
-175
-174
-168
-143
-151
-152
-155
-155
-156
-161
-178
-186
-188
-171
-192
-196
-205
-206
-207
-212
-222
-223
-212
-196
-198
-191
-186
-174
-163
-160
-163
-158
-141
-126
-129
-124
-121
-115
-112
-122
-133
-137
-124
-128
-139
-146
-151
-153
-157
-169
-180
-185
-174
-180
-185
-190
-191
-191
-197
-221
-236
-250
-248
-277
-299
-324
-343
-362
-380
-407
-418
-420
-395
-405
-394
-387
-372
-358
-348
-345
-335
-316
-290
-283
-262
-240
-209
-174
-141
-107
-57
13
85
148
229
318
418
523
626
739
868
1024
1169
1313
1464
1619
1778
1940
2099
2264
2443
2647
2841
3047
3263
3496
3741
3993
4243
4516
4806
5120
5411
5704
5982
6245
6481
6685
6843
6981
7092
7193
7229
7259
7263
7256
7234
7199
7153
7108
7069
7030
6966
6904
6829
6746
6651
6537
6412
6291
6179
6055
5907
5761
5607
5451
5287
5106
4922
4741
4577
4393
4201
4010
3818
3625
3429
3224
3017
2815
2634
2429
2233
2038
1853
1672
1492
1302
1126
958
809
642
486
333
192
58
-72
-211
-330
-436
-519
-631
-721
-809
-885
-956
-1028
-1101
-1163
-1213
-1257
-1320
-1370
-1422
-1468
-1513
-1563
-1616
-1659
-1687
-1720
-1767
-1807
-1847
-1882
-1917
-1961
-2001
-2031
-2039
-2060
-2083
-2098
-2110
-2116
-2120
-2130
-2135
-2133
-2109
-2114
-2109
-2107
-2099
-2091
-2087
-2097
-2101
-2101
-2085
-2094
-2096
-2100
-2099
-2098
-2102
-2123
-2129
-2129
-2112
-2124
-2122
-2121
-2113
-2103
-2096
-2093
-2081
-2059
-2032
-2028
-2011
-1997
-1977
-1959
-1949
-1944
-1930
-1902
-1883
-1878
-1866
-1854
-1837
-1822
-1819
-1812
-1799
-1767
-1751
-1741
-1729
-1715
-1700
-1685
-1680
-1671
-1655
-1616
-1609
-1592
-1578
-1558
-1537
-1519
-1512
-1498
-1481
-1449
-1444
-1429
-1420
-1406
-1393
-1384
-1391
-1385
-1372
-1345
-1347
-1338
-1332
-1320
-1309
-1305
-1307
-1301
-1285
-1265
-1266
-1256
-1246
-1228
-1211
-1202
-1197
-1183
-1154
-1136
-1131
-1121
-1111
-1098
-1087
-1088
-1088
-1081
-1059
-1052
-1053
-1050
-1047
-1041
-1037
-1045
-1047
-1044
-1018
-1027
-1025
-1027
-1023
-1019
-1017
-1024
-1024
-1018
-995
-1000
-994
-993
-984
-977
-974
-985
-982
-972
-949
-951
-943
-937
-927
-917
-915
-918
-914
-899
-882
-887
-882
-878
-870
-865
-870
-878
-878
-863
-858
-863
-862
-859
-851
-845
-848
-847
-840
-817
-808
-806
-801
-794
-785
-778
-785
-785
-780
-751
-757
-753
-753
-749
-744
-742
-749
-750
-747
-727
-740
-739
-744
-741
-738
-739
-751
-750
-740
-721
-723
-716
-711
-701
-693
-690
-693
-687
-669
-649
-651
-643
-637
-626
-618
-620
-626
-625
-609
-606
-614
-618
-623
-624
-628
-641
-652
-657
-647
-646
-650
-651
-648
-642
-636
-646
-645
-641
-612
-618
-614
-611
-604
-596
-591
-595
-591
-583
-557
-566
-561
-564
-559
-556
-559
-573
-576
-570
-558
-565
-564
-565
-560
-556
-557
-562
-555
-533
-511
-508
-494
-482
-465
-450
-444
-441
-430
-401
-386
-379
-368
-356
-344
-336
-339
-343
-342
-328
-327
-331
-333
-332
-328
-326
-340
-341
-337
-309
-312
-304
-296
-283
-269
-256
-255
-247
-233
-202
-208
-198
-195
-185
-177
-174
-180
-179
-171
-158
-167
-169
-176
-179
-185
-197
-213
-218
-209
-199
-207
-205
-203
-195
-187
-188
-187
-176
-147
-134
-128
-117
-106
-93
-83
-84
-85
-81
-63
-61
-61
-61
-58
-54
-53
-69
-74
-74
-53
-58
-54
-50
-40
-26
-12
-7
10
34
81
91
121
145
178
209
234
252
275
304
335
344
361
374
392
408
417
420
432
457
479
483
495
507
525
542
550
560
578
617
640
659
683
707
735
761
778
795
816
852
868
884
896
912
927
937
930
933
940
964
961
965
965
969
972
971
955
949
949
969
951
951
947
950
953
950
941
937
943
951
938
934
928
927
923
912
894
885
887
885
863
850
835
824
811
786
762
744
744
725
699
678
658
641
625
602
581
566
570
552
540
527
521
515
506
483
470
462
472
456
446
431
419
406
389
356
334
317
319
283
264
239
221
200
175
145
121
108
101
75
61
47
39
33
19
2
-5
2
4
-10
-16
-22
-25
-30
-46
-61
-70
-61
-71
-87
-101
-115
-128
-142
-164
-186
-203
-201
-225
-241
-259
-270
-279
-288
-309
-319
-322
-308
-316
-318
-323
-323
-323
-326
-343
-347
-344
-324
-339
-340
-345
-347
-353
-367
-388
-402
-406
-407
-430
-441
-454
-461
-468
-482
-500
-507
-498
-493
-502
-501
-498
-490
-482
-486
-487
-482
-460
-454
-455
-453
-451
-448
-446
-455
-462
-465
-449
-465
-472
-483
-488
-493
-499
-515
-523
-524
-508
-515
-512
-512
-503
-493
-485
-490
-478
-459
-425
-421
-406
-394
-379
-365
-358
-357
-350
-333
-314
-317
-310
-308
-302
-300
-308
-322
-328
-320
-320
-333
-338
-341
-339
-337
-347
-352
-349
-328
-319
-315
-306
-295
-282
-271
-272
-270
-264
-237
-247
-248
-254
-254
-255
-260
-275
-285
-291
-283
-302
-312
-327
-334
-340
-349
-369
-374
-371
-353
-361
-357
-355
-346
-338
-334
-335
-328
-311
-290
-292
-283
-278
-269
-262
-266
-274
-273
-257
-249
-252
-249
-245
-239
-235
-244
-250
-249
-232
-225
-223
-216
-207
-193
-180
-177
-168
-153
-111
-103
-83
-65
-41
-16
7
21
40
64
101
108
125
136
155
171
183
180
188
203
226
223
228
229
235
240
240
234
238
254
273
270
279
285
297
307
309
308
316
340
354
356
361
367
375
379
371
365
364
378
379
372
367
362
358
352
330
318
310
328
311
307
301
302
304
304
296
295
300
322
311
316
316
325
333
336
327
330
338
354
348
350
349
353
355
351
341
340
349
358
345
343
338
339
340
334
326
328
347
355
355
360
366
376
384
382
382
388
408
414
415
416
419
422
422
406
399
395
414
399
393
384
378
372
363
344
334
329
344
325
324
319
324
330
331
323
325
335
352
349
355
356
360
362
357
344
339
346
351
335
328
318
312
304
285
265
251
255
245
229
218
209
206
202
191
183
181
195
196
193
191
192
195
197
181
175
172
190
175
168
157
148
138
123
96
77
62
66
32
17
-4
-14
-24
-37
-56
-64
-61
-53
-63
-63
-64
-59
-54
-56
-64
-61
-45
-32
-38
-36
-37
-35
-35
-48
-62
-69
-60
-67
-83
-95
-106
-116
-128
-148
-168
-180
-176
-187
-197
-206
-209
-209
-212
-229
-234
-234
-213
-222
-223
-227
-226
-227
-232
-249
-258
-261
-245
-269
-275
-287
-293
-301
-315
-336
-351
-356
-358
-379
-390
-403
-410
-416
-428
-444
-448
-439
-432
-442
-443
-444
-441
-440
-450
-460
-462
-447
-449
-459
-465
-470
-473
-478
-491
-505
-514
-509
-524
-537
-552
-562
-571
-581
-604
-616
-620
-604
-610
-607
-605
-595
-583
-572
-573
-562
-543
-504
-502
-481
-466
-445
-426
-412
-406
-393
-372
-349
-346
-334
-327
-316
-306
-305
-310
-306
-288
-273
-273
-265
-255
-238
-222
-217
-209
-194
-158
-140
-127
-110
-92
-72
-55
-48
-42
-33
-7
-8
-5
-6
-2
1
0
-17
-25
-28
-15
-26
-31
-36
-35
-31
-30
-41
-37
-25
7
4
18
29
46
62
71
75
85
104
125
123
130
134
141
146
141
131
130
143
150
140
138
134
135
135
124
116
116
135
138
137
141
145
152
158
156
157
162
188
185
190
192
200
208
212
203
202
204
221
214
213
209
211
211
207
187
182
184
203
190
193
193
199
205
206
202
205
219
238
237
246
252
264
273
274
272
277
296
307
304
307
312
321
328
322
318
318
334
333
323
317
311
309
305
293
285
282
301
289
287
282
285
291
294
288
289
296
319
317
322
322
328
333
333
319
320
326
347
337
337
333
332
329
319
304
296
300
308
294
293
291
294
297
291
282
282
299
308
303
305
308
315
319
310
304
302
317
317
309
305
302
299
295
277
263
251
261
235
220
202
190
180
167
147
134
128
139
123
119
112
111
112
108
92
91
96
112
101
99
93
90
85
73
54
44
46
50
31
23
11
4
-7
-28
-51
-65
-62
-67
-81
-88
-92
-92
-95
-108
-118
-122
-109
-109
-115
-117
-117
-116
-117
-131
-139
-144
-125
-142
-148
-158
-163
-169
-179
-199
-213
-224
-219
-244
-256
-273
-280
-285
-293
-311
-315
-311
-297
-305
-303
-303
-298
-293
-292
-296
-292
-276
-259
-264
-258
-254
-244
-236
-237
-240
-233
-211
-200
-200
-195
-189
-179
-171
-174
-175
-168
-144
-130
-120
-108
-93
-75
-59
-58
-48
-34
4
8
23
34
49
63
72
69
71
76
97
82
82
74
72
67
56
33
21
16
19
1
-8
-17
-19
-20
-24
-34
-33
-20
-8
-20
-23
-32
-38
-50
-75
-104
-127
-134
-156
-186
-210
-231
-245
-257
-273
-282
-280
-262
-256
-254
-250
-242
-233
-223
-224
-212
-190
-140
-119
-82
-42
7
60
115
165
228
303
403
472
565
659
769
886
1005
1119
1246
1384
1530
1662
1806
1953
2113
2282
2455
2634
2834
3060
3296
3525
3776
4037
4318
4608
4896
5183
5472
5763
6015
6232
6423
6583
6714
6814
6877
6915
6937
6954
6941
6911
6873
6833
6789
6740
6673
6614
6552
6504
6418
6332
6237
6143
6043
5936
5813
5694
5575
5473
5328
5196
5052
4907
4755
4590
4410
4232
4057
3884
3689
3500
3309
3120
2930
2732
2528
2335
2158
1981
1791
1616
1444
1284
1128
967
814
674
559
434
307
192
85
-14
-110
-211
-308
-396
-466
-551
-634
-715
-789
-859
-929
-1012
-1080
-1140
-1178
-1243
-1300
-1358
-1411
-1463
-1517
-1582
-1633
-1677
-1696
-1752
-1786
-1822
-1849
-1873
-1900
-1930
-1950
-1958
-1960
-1980
-1989
-1998
-2001
-2004
-2016
-2032
-2039
-2033
-2030
-2045
-2050
-2057
-2060
-2065
-2084
-2102
-2116
-2111
-2125
-2144
-2158
-2170
-2178
-2187
-2202
-2215
-2222
-2210
-2217
-2219
-2221
-2217
-2210
-2204
-2211
-2206
-2195
-2167
-2164
-2155
-2149
-2138
-2128
-2120
-2126
-2120
-2109
-2080
-2090
-2084
-2084
-2079
-2077
-2079
-2086
-2085
-2074
-2059
-2063
-2055
-2049
-2036
-2022
-2016
-2012
-1998
-1968
-1940
-1927
-1905
-1883
-1856
-1832
-1820
-1809
-1791
-1755
-1737
-1726
-1712
-1698
-1683
-1671
-1668
-1666
-1661
-1637
-1639
-1633
-1629
-1616
-1602
-1589
-1588
-1575
-1556
-1518
-1503
-1481
-1460
-1432
-1403
-1375
-1363
-1337
-1305
-1257
-1246
-1221
-1201
-1178
-1159
-1146
-1142
-1133
-1116
-1098
-1104
-1100
-1100
-1095
-1090
-1093
-1099
-1094
-1072
-1055
-1050
-1036
-1021
-999
-979
-971
-960
-943
-907
-888
-875
-859
-842
-824
-808
-802
-796
-785
-754
-753
-744
-739
-729
-718
-709
-714
-710
-701
-676
-674
-664
-656
-641
-625
-611
-610
-595
-573
-536
-531
-513
-497
-477
-458
-445
-438
-425
-403
-380
-379
-369
-363
-353
-346
-350
-359
-362
-350
-349
-361
-367
-372
-374
-377
-391
-401
-403
-385
-381
-382
-378
-375
-370
-366
-373
-376
-375
-352
-362
-363
-368
-369
-370
-375
-392
-402
-409
-401
-419
-427
-438
-443
-448
-456
-478
-484
-483
-467
-478
-476
-473
-464
-455
-450
-450
-441
-424
-404
-408
-402
-399
-392
-386
-390
-398
-399
-385
-382
-393
-397
-403
-404
-408
-424
-437
-443
-432
-432
-437
-437
-435
-428
-422
-426
-423
-414
-379
-378
-365
-357
-345
-333
-324
-327
-325
-319
-298
-306
-302
-304
-299
-294
-295
-312
-315
-313
-300
-311
-313
-315
-311
-307
-307
-312
-306
-289
-269
-269
-258
-248
-232
-218
-213
-210
-201
-176
-163
-163
-157
-151
-142
-136
-140
-142
-137
-117
-111
-112
-110
-107
-102
-97
-105
-104
-96
-64
-67
-57
-50
-38
-25
-16
-14
-6
6
36
34
46
52
65
76
83
76
80
91
111
109
114
117
124
129
127
117
116
126
136
127
129
130
138
146
147
146
154
180
194
199
209
220
236
249
252
255
263
285
292
292
292
294
298
299
287
284
287
313
305
307
307
311
316
320
315
319
330
361
358
372
381
397
414
427
429
442
463
490
497
511
522
537
550
556
554
561
581
599
597
603
608
618
625
622
617
618
637
642
640
645
654
665
675
676
678
686
707
713
714
716
720
725
726
711
706
705
723
707
700
689
681
673
662
641
627
617
627
599
588
572
563
553
540
520
510
509
515
502
498
493
493
493
486
472
469
477
483
468
463
454
449
441
421
400
385
388
374
354
338
323
310
295
272
249
232
231
216
200
185
176
170
164
143
133
128
143
128
121
112
106
100
88
64
47
33
38
3
-16
-41
-61
-82
-108
-142
-167
-183
-194
-223
-241
-262
-275
-287
-305
-326
-336
-330
-325
-337
-340
-343
-341
-342
-354
-366
-370
-356
-359
-367
-372
-377
-379
-384
-397
-410
-418
-411
-423
-433
-445
-451
-456
-463
-484
-494
-496
-479
-485
-484
-482
-474
-465
-458
-463
-458
-447
-417
-425
-416
-414
-405
-397
-395
-399
-396
-385
-372
-382
-384
-390
-391
-394
-405
-420
-426
-417
-411
-420
-419
-419
-413
-408
-413
-414
-406
-378
-368
-362
-352
-342
-331
-322
-321
-322
-318
-297
-298
-296
-297
-293
-289
-288
-303
-308
-307
-289
-295
-293
-291
-283
-275
-268
-275
-268
-255
-221
-224
-208
-197
-179
-163
-152
-148
-137
-118
-98
-100
-94
-92
-85
-79
-81
-87
-86
-70
-61
-68
-68
-70
-66
-63
-70
-73
-68
-42
-33
-29
-21
-13
-2
8
10
14
22
49
49
57
61
70
79
84
74
73
76
95
89
91
88
90
91
87
68
62
63
83
69
73
73
81
88
91
88
93
107
126
123
131
135
144
151
149
141
140
153
156
143
138
132
128
122
104
86
75
80
66
46
28
11
-3
-17
-38
-55
-66
-53
-70
-76
-85
-86
-85
-86
-98
-101
-98
-79
-84
-81
-83
-80
-77
-78
-96
-99
-97
-80
-93
-95
-99
-99
-100
-108
-121
-126
-121
-112
-124
-124
-124
-117
-111
-112
-115
-108
-85
-70
-69
-60
-49
-33
-20
-21
-20
-15
6
11
8
7
6
6
5
-7
-15
-19
0
-15
-20
-27
-26
-24
-22
-30
-28
-19
7
8
20
26
38
49
54
45
51
64
88
83
89
90
94
95
88
74
68
73
79
64
59
51
47
40
23
4
-6
0
-2
-13
-17
-20
-17
-14
-23
-29
-29
-13
-12
-17
-20
-21
-21
-24
-39
-50
-58
-43
-65
-76
-91
-102
-113
-127
-150
-166
-177
-171
-194
-204
-218
-223
-227
-233
-251
-253
-247
-230
-235
-231
-230
-224
-219
-221
-230
-229
-218
-206
-215
-215
-218
-216
-218
-230
-245
-252
-245
-248
-262
-272
-281
-286
-292
-308
-320
-323
-309
-305
-306
-301
-294
-284
-276
-282
-279
-272
-242
-248
-245
-245
-241
-238
-238
-247
-251
-251
-235
-253
-258
-268
-271
-275
-282
-299
-302
-297
-281
-286
-280
-275
-264
-252
-245
-242
-229
-205
-181
-178
-166
-156
-142
-132
-132
-134
-129
-108
-99
-99
-94
-88
-80
-75
-81
-85
-84
-66
-60
-57
-49
-38
-24
-12
-14
-6
7
42
44
57
68
83
98
111
113
121
133
162
155
163
165
175
184
188
181
183
193
208
202
203
200
200
200
194
182
181
194
208
202
206
211
222
233
236
239
252
282
299
309
324
340
358
373
377
381
390
412
420
423
424
427
429
427
408
400
395
413
401
398
395
399
405
410
405
412
425
458
452
461
461
465
463
451
425
403
387
375
341
317
292
274
258
240
221
215
226
236
230
235
240
250
260
264
269
285
323
348
370
400
436
479
526
570
620
684
770
847
930
1021
1124
1236
1353
1459
1581
1713
1870
2002
2148
2298
2462
2633
2810
2984
3179
3390
3633
3848
4091
4338
4601
4873
5152
5431
5720
6012
6297
6546
6782
6988
7167
7312
7414
7478
7520
7549
7553
7521
7485
7438
7389
7335
7269
7201
7140
7097
7033
6957
6879
6797
6712
6619
6512
6395
6272
6153
6003
5842
5670
5492
5307
5112
4896
4686
4476
4280
4053
3828
3598
3370
3141
2907
2660
2427
2204
2005
1773
1566
1360
1166
978
792
608
439
288
149
-1
-133
-260
-375
-484
-597
-713
-815
-900
-986
-1084
-1170
-1253
-1328
-1401
-1484
-1563
-1633
-1682
-1746
-1814
-1876
-1937
-1993
-2049
-2112
-2172
-2225
-2257
-2310
-2357
-2402
-2438
-2469
-2500
-2540
-2566
-2584
-2581
-2601
-2612
-2624
-2629
-2632
-2636
-2654
-2657
-2653
-2630
-2642
-2638
-2640
-2637
-2637
-2642
-2653
-2658
-2653
-2642
-2653
-2650
-2650
-2642
-2635
-2635
-2638
-2629
-2604
-2582
-2573
-2553
-2531
-2503
-2476
-2459
-2440
-2413
-2369
-2342
-2321
-2296
-2270
-2242
-2217
-2203
-2189
-2173
-2138
-2134
-2125
-2120
-2110
-2099
-2092
-2098
-2095
-2088
-2064
-2064
-2055
-2050
-2037
-2022
-2009
-2009
-1993
-1969
-1929
-1921
-1900
-1883
-1864
-1847
-1836
-1831
-1819
-1798
-1774
-1771
-1759
-1752
-1741
-1732
-1733
-1738
-1735
-1718
-1708
-1710
-1705
-1699
-1688
-1678
-1679
-1676
-1665
-1634
-1617
-1604
-1586
-1566
-1543
-1521
-1510
-1496
-1478
-1439
-1434
-1420
-1410
-1395
-1382
-1373
-1377
-1376
-1372
-1354
-1363
-1363
-1368
-1365
-1362
-1360
-1371
-1367
-1355
-1327
-1325
-1311
-1298
-1279
-1260
-1245
-1237
-1220
-1193
-1163
-1157
-1141
-1130
-1115
-1105
-1104
-1108
-1103
-1085
-1076
-1082
-1081
-1082
-1080
-1081
-1095
-1106
-1109
-1095
-1093
-1095
-1092
-1086
-1077
-1068
-1070
-1066
-1056
-1022
-1022
-1011
-1003
-990
-977
-968
-971
-969
-964
-943
-949
-944
-942
-933
-925
-921
-931
-926
-913
-889
-889
-877
-866
-848
-829
-813
-800
-776
-739
-700
-682
-653
-625
-591
-559
-535
-514
-485
-440
-406
-385
-360
-337
-312
-289
-279
-266
-247
-213
-194
-183
-171
-159
-148
-140
-146
-145
-139
-107
-110
-100
-92
-78
-64
-51
-48
-40
-27
2
0
12
19
34
49
58
53
60
72
91
86
90
90
94
97
94
86
85
96
107
97
98
98
104
110
109
107
115
139
153
157
167
178
193
207
209
214
223
247
257
258
262
266
271
274
260
254
251
271
254
248
239
233
227
220
204
196
193
210
193
193
190
196
202
203
193
194
204
222
219
225
228
235
242
242
234
235
248
260
251
254
254
258
261
254
245
244
261
264
259
260
263
271
279
280
284
295
321
334
341
349
359
371
379
371
374
380
409
403
405
403
403
401
396
379
369
364
377
353
348
337
335
333
328
316
314
323
339
338
347
355
367
379
383
380
386
402
416
410
413
414
420
423
416
407
404
419
417
407
402
399
399
400
393
387
390
408
414
418
423
433
447
459
456
464
477
511
513
523
529
538
545
547
536
534
536
556
537
535
525
521
515
503
483
471
469
472
457
451
443
440
437
426
410
403
412
419
407
404
400
399
397
382
364
353
358
346
326
310
294
279
261
235
208
184
175
148
120
92
70
49
27
-10
-34
-52
-50
-75
-91
-109
-120
-131
-145
-171
-186
-196
-185
-215
-227
-244
-255
-269
-287
-310
-327
-334
-338
-363
-379
-398
-414
-430
-453
-481
-496
-496
-498
-514
-520
-527
-528
-530
-542
-553
-557
-541
-542
-549
-551
-553
-552
-554
-565
-576
-583
-574
-586
-594
-603
-605
-606
-609
-627
-634
-636
-621
-631
-634
-638
-635
-632
-629
-638
-635
-624
-593
-599
-587
-579
-566
-554
-546
-543
-534
-517
-498
-501
-496
-494
-488
-483
-487
-496
-495
-481
-472
-479
-479
-480
-476
-475
-483
-489
-487
-464
-457
-454
-447
-437
-424
-411
-407
-401
-390
-360
-355
-345
-338
-326
-314
-306
-315
-315
-312
-293
-299
-300
-303
-302
-299
-299
-312
-310
-301
-273
-277
-264
-254
-236
-218
-204
-194
-177
-150
-121
-115
-100
-88
-72
-57
-51
-49
-40
-17
-1
-1
6
11
20
27
21
17
19
39
43
39
39
39
41
41
33
29
31
56
52
57
60
70
81
88
83
88
97
123
124
132
137
147
156
160
147
148
154
175
164
165
164
167
170
166
158
159
170
185
181
190
198
213
227
234
239
251
278
297
302
313
324
337
348
347
348
355
378
385
385
386
385
385
381
366
353
343
354
331
317
300
287
275
261
238
221
211
218
200
193
181
176
171
163
139
129
126
136
119
113
105
102
98
87
69
59
58
59
36
23
9
0
-9
-27
-48
-59
-54
-58
-73
-80
-85
-84
-84
-95
-103
-103
-87
-84
-89
-91
-91
-90
-91
-104
-112
-116
-96
-111
-117
-128
-134
-142
-153
-175
-190
-201
-193
-214
-223
-236
-241
-245
-251
-269
-272
-266
-249
-256
-254
-253
-248
-244
-247
-256
-258
-249
-238
-250
-252
-257
-256
-258
-271
-287
-296
-290
-296
-313
-323
-331
-335
-340
-354
-364
-367
-354
-353
-357
-357
-353
-346
-340
-347
-346
-339
-308
-312
-305
-304
-298
-292
-289
-296
-298
-295
-276
-290
-291
-300
-302
-306
-314
-334
-339
-335
-321
-327
-321
-316
-304
-293
-286
-285
-275
-252
-229
-226
-212
-200
-184
-171
-168
-168
-162
-141
-132
-133
-128
-122
-115
-111
-117
-122
-123
-109
-106
-109
-109
-105
-97
-91
-98
-96
-88
-56
-57
-48
-41
-31
-21
-13
-15
-12
-5
19
5
8
3
4
5
0
-15
-20
-18
-9
-21
-24
-29
-29
-29
-34
-45
-43
-26
-8
-9
2
11
25
38
39
39
46
68
76
74
75
75
77
75
62
50
41
45
35
20
5
-6
-17
-29
-57
-73
-84
-71
-88
-93
-98
-96
-92
-88
-92
-88
-79
-52
-65
-64
-72
-76
-85
-102
-129
-149
-161
-167
-192
-207
-221
-226
-228
-230
-234
-225
-201
-178
-173
-158
-144
-125
-106
-95
-80
-55
-7
27
59
100
146
197
252
302
359
428
518
597
682
774
876
986
1099
1200
1317
1441
1588
1709
1843
1981
2130
2289
2454
2619
2804
3004
3234
3436
3667
3904
4160
4425
4691
4947
5196
5433
5650
5819
5969
6087
6182
6250
6288
6300
6303
6302
6287
6245
6207
6167
6132
6098
6053
6008
5967
5940
5891
5833
5776
5717
5657
5590
5511
5425
5339
5262
5158
5046
4924
4797
4663
4519
4352
4189
4023
3872
3688
3508
3324
3142
2958
2770
2568
2378
2194
2031
1832
1653
1474
1308
1147
987
827
679
547
424
287
166
49
-57
-160
-266
-374
-468
-546
-625
-717
-799
-879
-952
-1023
-1102
-1177
-1242
-1286
-1345
-1408
-1465
-1519
-1569
-1618
-1674
-1726
-1769
-1792
-1835
-1871
-1906
-1932
-1954
-1975
-2007
-2026
-2037
-2030
-2045
-2052
-2060
-2061
-2062
-2066
-2084
-2089
-2087
-2065
-2080
-2077
-2078
-2074
-2073
-2078
-2090
-2098
-2096
-2091
-2107
-2111
-2116
-2114
-2112
-2117
-2126
-2124
-2106
-2092
-2090
-2078
-2065
-2046
-2028
-2020
-2011
-1995
-1960
-1943
-1933
-1919
-1904
-1888
-1874
-1869
-1864
-1855
-1828
-1829
-1824
-1822
-1814
-1806
-1801
-1807
-1801
-1789
-1760
-1753
-1739
-1727
-1708
-1688
-1669
-1664
-1644
-1616
-1571
-1558
-1531
-1507
-1479
-1453
-1433
-1422
-1404
-1377
-1348
-1341
-1323
-1309
-1291
-1275
-1270
-1270
-1265
-1246
-1234
-1235
-1229
-1222
-1210
-1197
-1195
-1190
-1177
-1143
-1126
-1114
-1098
-1080
-1060
-1040
-1031
-1021
-1008
-974
-974
-965
-961
-952
-943
-938
-945
-944
-939
-920
-926
-924
-927
-922
-917
-914
-924
-916
-898
-863
-856
-834
-813
-786
-759
-738
-724
-702
-670
-637
-627
-608
-594
-577
-564
-563
-568
-565
-549
-544
-552
-555
-558
-558
-561
-576
-588
-592
-579
-579
-583
-582
-578
-570
-564
-567
-565
-560
-532
-538
-534
-532
-525
-518
-514
-521
-523
-521
-504
-516
-518
-525
-526
-527
-532
-550
-554
-550
-533
-542
-539
-538
-531
-524
-521
-523
-516
-497
-474
-471
-456
-444
-429
-416
-414
-416
-410
-391
-381
-384
-381
-378
-371
-365
-372
-377
-375
-357
-352
-353
-350
-347
-342
-338
-346
-349
-346
-318
-325
-319
-317
-308
-298
-290
-292
-289
-282
-261
-270
-266
-267
-261
-255
-255
-267
-267
-260
-244
-252
-251
-254
-254
-254
-261
-273
-278
-271
-263
-276
-276
-279
-276
-275
-282
-289
-286
-265
-256
-256
-251
-246
-237
-231
-236
-239
-236
-217
-211
-211
-209
-206
-202
-202
-217
-224
-227
-206
-220
-224
-229
-229
-228
-229
-238
-239
-235
-212
-221
-214
-210
-197
-185
-176
-179
-171
-155
-133
-133
-125
-121
-113
-106
-106
-113
-110
-97
-85
-95
-97
-101
-101
-102
-113
-125
-127
-112
-108
-113
-112
-108
-101
-94
-95
-92
-82
-57
-44
-37
-28
-18
-7
0
-9
-9
-4
24
18
22
24
28
30
28
16
10
9
28
11
14
12
20
29
35
33
42
61
88
97
114
130
152
173
189
198
215
244
270
275
289
300
315
328
330
330
337
359
364
361
362
364
369
374
370
370
377
401
412
420
431
445
462
478
477
487
502
538
543
555
563
572
580
583
573
570
571
590
570
567
556
551
543
529
505
488
480
476
454
442
429
422
415
402
383
373
377
378
360
351
342
337
330
310
289
273
274
255
228
205
181
158
134
99
65
37
23
-6
-36
-65
-87
-106
-124
-155
-172
-182
-169
-182
-186
-190
-188
-187
-189
-203
-207
-205
-184
-203
-204
-212
-213
-217
-227
-243
-253
-253
-248
-263
-267
-273
-273
-274
-280
-289
-287
-270
-254
-253
-242
-231
-215
-199
-194
-189
-178
-149
-138
-132
-123
-112
-99
-88
-86
-85
-80
-60
-61
-62
-65
-64
-61
-60
-75
-78
-78
-60
-68
-69
-71
-69
-66
-64
-74
-71
-61
-29
-36
-26
-22
-14
-8
-7
-12
-10
0
14
7
10
10
15
18
12
1
-1
10
17
8
6
4
6
8
-2
-10
-9
13
17
18
24
33
45
58
62
66
74
100
101
106
107
114
122
127
118
117
120
138
131
129
123
122
120
115
94
87
86
106
91
92
90
94
99
101
99
104
120
139
136
142
144
152
157
153
143
140
151
156
144
140
135
134
130
114
99
91
102
96
85
79
75
74
72
62
54
53
74
68
71
72
80
88
93
85
84
86
103
95
94
88
88
87
81
61
53
51
64
44
37
26
19
12
0
-16
-23
-19
-11
-24
-25
-28
-25
-21
-25
-32
-30
-14
-5
-11
-9
-7
-3
-1
-10
-16
-15
5
8
4
3
-1
-7
-19
-44
-68
-89
-87
-116
-132
-148
-153
-151
-147
-147
-135
-113
-72
-52
-20
9
47
86
124
148
188
237
305
346
402
459
527
603
684
771
877
1004
1143
1268
1413
1562
1725
1893
2061
2236
2430
2649
2869
3082
3307
3538
3777
4018
4251
4492
4746
5020
5282
5539
5803
6070
6340
6608
6862
7114
7357
7600
7778
7934
8052
8139
8192
8207
8184
8143
8088
8033
7938
7845
7742
7642
7539
7429
7301
7183
7067
6956
6813
6674
6523
6367
6199
6013
5812
5609
5408
5203
4970
4744
4511
4280
4043
3791
3533
3283
3049
2807
2557
2318
2084
1860
1640
1415
1200
998
819
632
446
269
98
-65
-224
-390
-544
-689
-804
-950
-1081
-1210
-1330
-1447
-1563
-1685
-1797
-1898
-1978
-2085
-2173
-2264
-2343
-2419
-2495
-2579
-2646
-2699
-2738
-2794
-2837
-2876
-2907
-2935
-2965
-2998
-3020
-3027
-3031
-3053
-3059
-3063
-3058
-3051
-3051
-3052
-3043
-3017
-3001
-2995
-2983
-2970
-2953
-2938
-2934
-2928
-2916
-2890
-2877
-2868
-2857
-2844
-2826
-2809
-2804
-2787
-2764
-2715
-2699
-2672
-2646
-2614
-2581
-2549
-2528
-2499
-2464
-2410
-2390
-2354
-2325
-2288
-2253
-2224
-2207
-2182
-2150
-2113
-2097
-2075
-2057
-2034
-2012
-1999
-1992
-1976
-1948
-1920
-1911
-1891
-1872
-1847
-1822
-1808
-1796
-1774
-1735
-1710
-1693
-1670
-1647
-1620
-1595
-1581
-1566
-1546
-1514
-1496
-1485
-1475
-1463
-1450
-1440
-1447
-1444
-1436
-1405
-1406
-1397
-1390
-1377
-1363
-1350
-1345
-1331
-1310
-1270
-1267
-1247
-1233
-1212
-1192
-1176
-1170
-1154
-1131
-1102
-1093
-1078
-1066
-1051
-1040
-1037
-1043
-1041
-1027
-1015
-1023
-1021
-1020
-1015
-1010
-1015
-1020
-1016
-993
-984
-979
-967
-953
-935
-918
-910
-901
-888
-860
-848
-840
-832
-819
-806
-795
-802
-800
-796
-773
-782
-784
-790
-793
-796
-801
-817
-823
-824
-802
-818
-814
-813
-803
-792
-783
-781
-771
-751
-727
-721
-707
-698
-685
-673
-671
-676
-672
-656
-644
-652
-651
-654
-654
-657
-672
-689
-699
-689
-695
-705
-711
-713
-710
-708
-714
-718
-715
-695
-691
-687
-683
-673
-661
-651
-658
-656
-650
-627
-632
-630
-631
-629
-627
-629
-645
-651
-653
-636
-658
-664
-675
-677
-680
-686
-696
-697
-687
-673
-678
-672
-669
-658
-649
-647
-650
-643
-621
-604
-605
-598
-594
-586
-582
-590
-598
-600
-583
-585
-594
-599
-605
-610
-616
-630
-643
-649
-638
-645
-646
-648
-642
-635
-630
-638
-634
-626
-599
-597
-588
-580
-569
-558
-551
-560
-558
-552
-528
-543
-541
-544
-541
-539
-543
-555
-560
-557
-551
-567
-572
-578
-576
-573
-576
-582
-577
-556
-539
-537
-528
-519
-507
-497
-499
-500
-495
-471
-467
-470
-470
-470
-469
-470
-479
-488
-491
-475
-485
-489
-495
-496
-495
-497
-510
-513
-509
-486
-487
-480
-475
-463
-450
-440
-446
-438
-426
-396
-401
-392
-386
-377
-369
-367
-371
-369
-358
-345
-353
-352
-354
-350
-347
-352
-362
-362
-346
-334
-335
-326
-315
-296
-277
-266
-251
-225
-178
-146
-119
-88
-55
-20
13
36
61
91
141
160
186
207
232
256
276
283
298
317
351
360
378
392
413
434
453
458
478
506
552
568
598
626
659
690
716
735
760
794
830
843
866
884
907
928
939
945
957
984
1002
1006
1017
1028
1042
1055
1057
1062
1074
1103
1117
1126
1139
1153
1169
1184
1189
1197
1208
1240
1237
1242
1241
1243
1243
1239
1223
1212
1204
1209
1187
1173
1153
1140
1124
1105
1072
1053
1043
1045
1022
1010
997
989
980
967
948
938
938
942
924
917
908
903
896
879
858
843
844
834
812
795
779
765
748
719
691
669
661
639
609
583
558
537
515
482
456
435
440
411
394
376
365
357
347
328
316
309
317
297
287
272
264
254
238
210
195
187
189
167
153
135
120
104
81
51
31
23
17
-9
-22
-35
-43
-50
-66
-84
-92
-82
-83
-93
-95
-96
-93
-92
-103
-113
-117
-107
-110
-119
-126
-132
-136
-144
-167
-184
-198
-189
-217
-233
-251
-263
-275
-287
-308
-320
-326
-314
-333
-336
-343
-343
-342
-344
-358
-359
-352
-339
-348
-350
-357
-360
-364
-374
-390
-397
-393
-389
-406
-415
-426
-433
-443
-462
-482
-492
-484
-485
-494
-496
-496
-491
-487
-491
-491
-485
-464
-454
-449
-442
-433
-423
-416
-426
-428
-427
-404
-417
-420
-429
-434
-440
-450
-471
-486
-499
-493
-522
-534
-549
-556
-561
-569
-584
-586
-578
-562
-564
-557
-552
-541
-531
-527
-530
-525
-509
-494
-501
-500
-501
-499
-499
-510
-522
-527
-515
-518
-529
-537
-542
-543
-546
-557
-565
-565
-549
-544
-540
-532
-518
-502
-488
-491
-482
-470
-434
-431
-419
-409
-395
-382
-371
-372
-366
-355
-325
-333
-323
-320
-309
-299
-296
-300
-296
-283
-266
-267
-259
-252
-238
-225
-218
-216
-205
-181
-160
-159
-149
-141
-130
-121
-124
-129
-127
-108
-107
-114
-117
-120
-120
-122
-134
-145
-150
-139
-143
-147
-151
-149
-146
-143
-156
-157
-151
-124
-125
-117
-111
-101
-92
-86
-93
-91
-84
-57
-69
-63
-64
-58
-55
-58
-69
-74
-71
-65
-79
-83
-90
-91
-92
-100
-113
-115
-102
-91
-96
-90
-85
-74
-63
-62
-60
-51
-25
-18
-17
-13
-8
-1
4
1
-3
-2
15
13
10
5
3
1
-4
-25
-35
-40
-26
-37
-41
-46
-45
-42
-40
-50
-46
-35
-2
-6
8
16
30
42
48
47
50
62
76
70
73
73
77
78
71
58
52
61
65
54
51
49
53
55
48
43
45
68
73
74
79
87
98
108
109
110
116
139
138
139
136
138
141
141
127
123
125
144
137
137
133
133
132
128
110
106
110
135
125
132
136
146
156
161
162
169
186
206
204
213
218
227
233
229
218
214
223
226
212
205
197
193
186
166
146
132
137
124
107
95
85
79
73
60
49
43
58
46
42
36
35
35
34
19
13
12
25
13
6
-5
-10
-14
-21
-43
-51
-53
-39
-61
-70
-84
-94
-105
-121
-141
-151
-149
-142
-156
-156
-158
-154
-149
-152
-159
-156
-138
-125
-126
-117
-109
-95
-84
-85
-85
-78
-52
-43
-40
-32
-24
-14
-7
-11
-13
-12
10
0
0
-1
5
14
21
17
23
34
61
62
72
77
87
98
103
92
95
103
124
114
115
112
112
110
103
90
83
85
90
72
64
53
49
43
31
15
10
22
28
21
21
22
27
30
21
15
17
36
41
41
43
47
51
55
46
42
40
61
47
42
32
28
23
13
-8
-22
-32
-26
-47
-55
-67
-70
-72
-77
-94
-96
-90
-72
-80
-78
-77
-71
-66
-67
-73
-70
-57
-43
-52
-51
-53
-51
-51
-60
-71
-75
-64
-62
-72
-75
-78
-78
-79
-90
-97
-95
-75
-66
-62
-54
-45
-34
-24
-28
-24
-16
16
13
22
28
38
47
52
46
45
48
67
54
54
48
49
48
43
25
21
25
39
31
33
33
39
46
48
45
50
66
83
79
84
87
95
101
96
89
89
103
105
94
87
79
73
63
42
24
12
15
8
-5
-15
-23
-27
-31
-48
-54
-53
-25
-32
-26
-22
-14
-5
-1
-6
-6
0
22
11
14
11
15
16
11
-6
-14
-14
-9
-26
-35
-47
-53
-60
-72
-89
-96
-89
-81
-91
-88
-86
-77
-68
-67
-67
-59
-33
-21
-19
-13
-6
4
12
9
8
12
30
35
33
32
33
35
34
19
14
16
43
38
45
51
61
73
83
84
92
105
138
134
147
153
166
177
181
174
176
185
198
189
188
183
181
177
164
144
131
131
130
110
101
92
90
89
80
72
72
92
99
100
106
114
125
134
133
132
134
148
147
140
132
126
121
111
85
68
56
65
42
26
9
-4
-15
-27
-47
-56
-56
-34
-48
-42
-41
-30
-18
-11
-12
-4
14
38
43
53
60
71
78
75
65
62
70
76
63
59
54
54
52
41
28
25
42
44
42
45
51
61
72
74
77
85
108
113
116
117
123
130
133
119
116
114
131
117
110
99
91
83
72
47
32
23
34
6
-3
-17
-24
-30
-38
-51
-55
-49
-37
-44
-42
-42
-38
-37
-44
-57
-61
-53
-48
-62
-68
-76
-80
-86
-103
-121
-132
-124
-134
-149
-159
-169
-175
-183
-198
-212
-220
-211
-221
-226
-232
-230
-226
-223
-233
-233
-229
-208
-213
-211
-211
-206
-201
-198
-209
-208
-202
-177
-190
-187
-190
-186
-183
-185
-193
-196
-189
-178
-189
-190
-193
-190
-187
-192
-200
-198
-180
-165
-166
-157
-148
-135
-125
-128
-131
-130
-113
-118
-132
-145
-162
-179
-199
-228
-257
-281
-283
-307
-320
-329
-325
-315
-304
-304
-292
-273
-236
-221
-199
-176
-144
-109
-75
-52
-12
37
108
148
207
267
337
413
490
570
663
772
893
1000
1125
1255
1397
1542
1683
1823
1977
2151
2324
2489
2671
2861
3066
3282
3499
3731
3982
4264
4539
4822
5121
5428
5738
6042
6325
6588
6828
7057
7225
7365
7467
7542
7589
7606
7587
7558
7517
7483
7418
7357
7290
7228
7165
7096
7006
6922
6838
6763
6652
6554
6448
6342
6226
6097
5953
5807
5661
5510
5328
5150
4962
4773
4579
4370
4152
3939
3737
3525
3298
3077
2857
2643
2430
2211
2001
1803
1630
1448
1268
1099
938
786
641
494
357
233
138
17
-88
-192
-285
-375
-465
-562
-649
-729
-790
-876
-951
-1030
-1102
-1174
-1249
-1337
-1409
-1472
-1519
-1593
-1652
-1710
-1760
-1809
-1860
-1914
-1956
-1984
-2006
-2046
-2073
-2099
-2116
-2132
-2155
-2181
-2197
-2198
-2206
-2228
-2243
-2258
-2267
-2278
-2301
-2321
-2336
-2335
-2349
-2370
-2388
-2405
-2418
-2432
-2455
-2471
-2479
-2461
-2476
-2478
-2483
-2479
-2473
-2469
-2472
-2468
-2457
-2428
-2426
-2413
-2404
-2389
-2374
-2364
-2368
-2358
-2341
-2313
-2311
-2300
-2292
-2282
-2274
-2272
-2278
-2274
-2258
-2240
-2241
-2230
-2220
-2204
-2189
-2182
-2176
-2160
-2126
-2102
-2089
-2069
-2047
-2021
-1995
-1982
-1967
-1947
-1912
-1891
-1877
-1861
-1846
-1830
-1817
-1819
-1814
-1806
-1775
-1781
-1775
-1773
-1765
-1756
-1749
-1749
-1741
-1727
-1695
-1692
-1675
-1664
-1645
-1626
-1613
-1610
-1595
-1573
-1541
-1532
-1517
-1506
-1491
-1479
-1474
-1477
-1472
-1457
-1441
-1447
-1442
-1440
-1434
-1431
-1436
-1444
-1443
-1424
-1416
-1416
-1408
-1397
-1381
-1364
-1357
-1348
-1333
-1303
-1286
-1274
-1261
-1246
-1229
-1214
-1214
-1207
-1197
-1165
-1168
-1162
-1159
-1153
-1148
-1145
-1152
-1153
-1148
-1123
-1132
-1123
-1119
-1105
-1090
-1078
-1076
-1061
-1036
-1002
-989
-968
-950
-928
-907
-894
-888
-873
-846
-820
-815
-801
-790
-777
-766
-766
-770
-766
-745
-738
-740
-738
-732
-723
-715
-715
-712
-702
-675
-659
-646
-629
-607
-583
-561
-555
-538
-518
-477
-470
-453
-440
-423
-407
-393
-391
-383
-371
-342
-350
-343
-341
-332
-323
-319
-323
-317
-301
-279
-276
-263
-254
-238
-223
-214
-210
-196
-169
-144
-140
-127
-119
-106
-98
-100
-106
-106
-89
-89
-97
-103
-108
-113
-121
-140
-159
-173
-172
-185
-199
-211
-218
-223
-229
-250
-259
-262
-242
-251
-249
-249
-244
-239
-236
-246
-246
-243
-220
-236
-236
-242
-242
-243
-251
-267
-275
-276
-273
-291
-301
-315
-323
-331
-343
-360
-365
-356
-348
-357
-355
-352
-343
-335
-337
-340
-334
-309
-301
-300
-295
-291
-285
-283
-289
-296
-297
-283
-287
-290
-296
-300
-303
-311
-335
-349
-357
-343
-356
-360
-366
-365
-364
-365
-377
-376
-369
-340
-350
-341
-338
-327
-316
-312
-316
-314
-306
-296
-308
-313
-321
-324
-330
-344
-365
-377
-376
-379
-398
-408
-417
-420
-424
-436
-445
-445
-425
-421
-420
-413
-405
-393
-383
-381
-377
-367
-339
-334
-326
-321
-310
-299
-290
-297
-293
-285
-259
-257
-249
-244
-233
-223
-215
-221
-213
-197
-160
-158
-138
-121
-96
-72
-52
-36
-13
18
54
68
95
118
148
176
196
210
233
268
297
309
329
348
370
391
400
409
424
456
469
477
490
503
520
535
543
552
566
599
604
615
622
633
645
653
647
649
655
677
674
675
672
674
674
670
649
642
639
653
632
624
612
604
595
581
560
547
544
545
524
516
505
500
495
480
460
449
454
453
437
428
418
412
404
384
366
354
360
349
332
318
306
295
282
260
240
226
234
212
200
186
181
179
176
165
164
171
194
194
203
208
220
232
242
237
249
268
304
310
328
342
360
375
382
383
389
405
423
417
423
425
433
438
435
429
433
452
464
463
472
482
496
508
509
511
520
545
553
555
560
566
573
578
571
566
563
581
564
556
543
536
527
515
493
477
467
473
453
443
430
424
421
415
398
395
400
418
409
410
407
409
410
403
390
385
391
398
383
378
369
363
354
335
312
296
295
286
264
249
236
228
219
198
182
174
185
185
180
180
181
185
187
177
172
171
193
179
175
169
168
167
162
145
133
123
128
103
89
70
59
48
33
7
-3
-4
7
-4
-4
-6
-1
4
4
-2
2
17
34
28
32
32
36
39
31
19
16
29
32
22
18
14
12
9
-6
-19
-25
-15
-17
-25
-28
-29
-26
-26
-38
-41
-39
-12
-21
-19
-20
-17
-14
-16
-29
-37
-42
-31
-53
-60
-74
-81
-89
-101
-124
-136
-140
-137
-155
-162
-172
-176
-180
-189
-204
-210
-204
-197
-210
-212
-217
-217
-218
-228
-241
-245
-232
-233
-243
-249
-255
-257
-262
-278
-292
-299
-291
-296
-306
-314
-319
-322
-326
-344
-351
-350
-323
-328
-321
-317
-307
-296
-287
-287
-282
-271
-240
-245
-233
-227
-214
-203
-198
-204
-201
-191
-176
-183
-182
-183
-181
-180
-186
-198
-201
-191
-182
-193
-193
-194
-188
-183
-187
-190
-185
-162
-152
-151
-145
-138
-127
-118
-120
-122
-122
-111
-116
-129
-147
-165
-187
-214
-258
-293
-323
-330
-367
-391
-413
-426
-432
-435
-445
-444
-434
-402
-403
-384
-366
-336
-304
-272
-245
-203
-147
-77
-20
55
137
237
346
460
580
719
880
1050
1210
1389
1573
1769
1970
2166
2368
2584
2827
3061
3297
3544
3801
4066
4337
4605
4880
5167
5472
5765
6059
6355
6654
6948
7227
7471
7699
7898
8083
8204
8298
8357
8391
8400
8387
8346
8301
8253
8221
8148
8091
8026
7964
7897
7819
7726
7632
7537
7434
7297
7154
6994
6827
6646
6445
6228
6012
5800
5576
5328
5082
4830
4581
4328
4065
3804
3553
3324
3083
2841
2609
2383
2166
1954
1741
1536
1342
1171
988
812
641
482
332
188
35
-103
-231
-336
-463
-577
-690
-794
-893
-990
-1094
-1180
-1255
-1305
-1389
-1453
-1520
-1580
-1639
-1702
-1769
-1827
-1874
-1913
-1969
-2013
-2056
-2092
-2126
-2167
-2210
-2241
-2254
-2268
-2296
-2313
-2328
-2335
-2341
-2357
-2370
-2374
-2359
-2360
-2366
-2368
-2369
-2367
-2368
-2378
-2390
-2399
-2391
-2408
-2423
-2440
-2451
-2460
-2471
-2494
-2505
-2509
-2495
-2504
-2504
-2504
-2497
-2488
-2480
-2486
-2476
-2458
-2420
-2417
-2399
-2384
-2364
-2346
-2332
-2325
-2310
-2287
-2261
-2258
-2245
-2238
-2227
-2219
-2221
-2228
-2227
-2210
-2198
-2200
-2193
-2185
-2172
-2158
-2156
-2150
-2136
-2102
-2085
-2071
-2052
-2032
-2010
-1988
-1976
-1965
-1949
-1915
-1908
-1896
-1887
-1874
-1861
-1852
-1858
-1858
-1854
-1837
-1844
-1846
-1850
-1847
-1843
-1839
-1849
-1844
-1831
-1800
-1800
-1785
-1772
-1753
-1733
-1716
-1704
-1684
-1655
-1621
-1609
-1587
-1570
-1549
-1530
-1521
-1518
-1507
-1484
-1468
-1468
-1463
-1458
-1450
-1443
-1449
-1451
-1446
-1420
-1407
-1399
-1384
-1367
-1345
-1324
-1312
-1297
-1278
-1236
-1226
-1205
-1189
-1167
-1146
-1129
-1124
-1113
-1099
-1072
-1070
-1061
-1057
-1048
-1039
-1036
-1050
-1050
-1042
-1019
-1025
-1018
-1011
-998
-985
-975
-970
-957
-932
-905
-901
-886
-874
-858
-844
-839
-839
-831
-810
-798
-802
-800
-800
-797
-798
-811
-824
-831
-821
-826
-837
-845
-850
-853
-858
-872
-881
-883
-860
-871
-870
-871
-865
-860
-858
-866
-866
-861
-840
-847
-843
-844
-838
-834
-836
-853
-858
-858
-846
-861
-866
-872
-872
-872
-876
-886
-887
-877
-864
-870
-865
-861
-850
-840
-837
-835
-825
-799
-782
-778
-765
-752
-734
-717
-710
-699
-681
-647
-626
-612
-595
-577
-557
-538
-532
-517
-497
-453
-442
-420
-399
-373
-345
-319
-302
-278
-247
-198
-178
-144
-116
-82
-49
-22
-10
12
39
74
83
100
113
129
144
150
149
156
172
190
186
194
199
211
222
226
229
242
272
290
299
313
329
349
368
376
385
398
426
440
446
453
460
467
472
463
461
465
492
483
484
480
480
480
477
464
458
458
476
463
466
465
471
477
479
471
475
487
507
507
514
519
527
533
529
519
516
524
532
520
518
514
514
512
500
486
481
493
492
484
483
485
492
500
499
502
510
534
546
553
562
574
587
598
595
603
615
650
650
658
663
673
682
688
685
688
696
723
712
716
714
719
723
723
713
715
727
746
745
753
758
767
775
778
776
782
799
815
811
815
817
822
824
814
802
795
805
799
785
774
763
754
742
719
696
678
674
658
639
620
605
595
582
555
538
525
534
512
498
480
466
452
434
406
386
370
372
334
312
284
262
238
209
172
143
122
106
70
43
13
-11
-34
-63
-95
-115
-118
-122
-142
-151
-161
-165
-171
-188
-205
-215
-207
-215
-230
-241
-252
-260
-270
-289
-307
-321
-320
-335
-350
-366
-377
-387
-401
-431
-450
-464
-457
-477
-488
-499
-503
-507
-513
-529
-534
-534
-514
-532
-533
-539
-539
-539
-544
-556
-562
-560
-556
-572
-580
-591
-598
-606
-623
-645
-658
-657
-659
-679
-689
-699
-704
-709
-725
-739
-744
-729
-730
-735
-734
-733
-729
-727
-733
-740
-743
-729
-737
-743
-752
-755
-759
-766
-789
-801
-810
-801
-818
-827
-838
-843
-848
-855
-875
-883
-883
-862
-878
-875
-874
-866
-858
-854
-857
-852
-840
-824
-829
-825
-825
-820
-815
-816
-822
-818
-800
-785
-787
-780
-774
-764
-754
-755
-754
-746
-718
-706
-698
-684
-669
-649
-629
-616
-601
-580
-539
-521
-498
-477
-452
-428
-407
-401
-386
-367
-331
-319
-300
-284
-262
-241
-225
-224
-210
-191
-153
-152
-136
-125
-108
-93
-84
-81
-71
-53
-31
-31
-20
-11
4
18
24
25
34
56
72
70
76
80
87
93
88
84
88
109
112
109
108
108
111
111
104
99
100
124
119
124
128
137
148
157
154
160
171
197
198
206
210
219
226
227
213
211
215
235
223
224
221
222
219
210
193
181
179
181
160
151
140
136
133
123
111
108
121
127
120
121
121
127
130
121
116
115
130
128
117
108
98
88
77
54
34
18
24
-5
-25
-48
-66
-83
-102
-129
-148
-160
-153
-171
-176
-185
-185
-185
-187
-203
-204
-197
-176
-184
-181
-182
-179
-178
-185
-198
-205
-201
-195
-212
-216
-224
-227
-233
-249
-270
-282
-279
-284
-300
-307
-312
-311
-310
-319
-324
-322
-301
-293
-293
-290
-285
-278
-273
-279
-281
-277
-252
-263
-264
-269
-268
-267
-269
-282
-289
-292
-278
-292
-295
-302
-301
-300
-303
-316
-314
-302
-278
-277
-265
-256
-240
-226
-217
-215
-204
-181
-157
-155
-143
-135
-124
-117
-122
-131
-133
-121
-120
-131
-137
-143
-145
-149
-165
-176
-181
-170
-169
-174
-174
-170
-164
-157
-162
-159
-153
-123
-130
-126
-126
-121
-118
-118
-127
-132
-134
-119
-137
-142
-153
-156
-160
-169
-189
-197
-196
-187
-200
-204
-210
-210
-212
-218
-229
-230
-218
-203
-209
-204
-202
-197
-194
-201
-212
-216
-206
-208
-221
-229
-236
-240
-248
-267
-285
-297
-296
-307
-324
-339
-351
-361
-370
-393
-406
-413
-395
-409
-411
-414
-409
-403
-398
-402
-398
-390
-363
-369
-359
-355
-342
-330
-322
-324
-315
-299
-276
-273
-263
-256
-244
-233
-229
-230
-222
-200
-177
-174
-158
-143
-122
-101
-89
-77
-56
-18
7
24
45
67
93
117
130
145
164
198
218
234
250
268
285
300
297
304
314
347
348
358
367
382
398
411
415
426
442
478
478
495
509
530
550
564
568
580
600
623
624
633
638
647
655
654
647
648
660
667
653
647
637
631
623
606
589
581
592
589
580
577
577
580
582
576
572
573
588
588
585
581
581
580
576
554
543
536
550
532
522
509
498
487
473
446
428
415
421
390
378
362
355
347
336
317
308
308
314
302
299
293
293
290
280
263
254
257
256
234
219
202
190
176
151
125
106
105
87
62
43
25
11
-2
-21
-37
-45
-35
-42
-47
-52
-53
-52
-54
-71
-78
-79
-60
-69
-73
-80
-83
-88
-98
-121
-134
-142
-129
-156
-165
-179
-187
-196
-210
-231
-244
-247
-245
-263
-268
-275
-275
-275
-282
-294
-297
-285
-277
-286
-285
-283
-275
-269
-276
-281
-280
-261
-262
-268
-271
-274
-275
-278
-290
-302
-309
-300
-314
-324
-335
-340
-343
-346
-362
-366
-363
-342
-344
-338
-334
-325
-316
-311
-320
-318
-310
-283
-294
-289
-290
-285
-284
-288
-300
-306
-304
-298
-314
-319
-327
-330
-334
-346
-362
-368
-357
-350
-356
-352
-348
-338
-329
-331
-333
-330
-308
-306
-309
-309
-309
-306
-305
-312
-320
-323
-307
-317
-321
-328
-328
-327
-327
-340
-343
-341
-321
-326
-324
-325
-321
-316
-313
-324
-319
-307
-275
-276
-264
-254
-239
-226
-217
-213
-204
-185
-164
-165
-155
-150
-140
-132
-135
-143
-143
-132
-128
-139
-143
-149
-150
-152
-166
-178
-182
-166
-166
-170
-169
-167
-162
-157
-162
-166
-167
-146
-157
-160
-166
-167
-168
-173
-190
-200
-207
-199
-218
-229
-246
-256
-267
-281
-310
-323
-328
-316
-333
-335
-339
-336
-331
-330
-332
-324
-306
-283
-282
-269
-258
-241
-226
-218
-213
-198
-166
-141
-129
-108
-88
-65
-43
-36
-25
-8
26
45
58
77
96
120
142
155
172
195
243
258
285
309
338
367
393
407
426
448
482
487
500
505
516
527
531
521
523
530
547
536
533
527
525
521
513
500
496
502
512
500
500
497
501
505
502
495
498
516
525
521
523
523
526
526
513
502
497
508
505
494
486
477
469
458
434
415
401
413
390
380
369
366
363
359
346
341
341
359
349
350
345
348
351
349
333
329
330
340
324
317
308
302
294
279
257
241
235
230
202
184
162
146
129
105
79
63
63
54
35
23
14
10
4
-13
-28
-37
-32
-42
-62
-84
-107
-133
-162
-206
-242
-273
-278
-314
-336
-356
-367
-373
-377
-387
-389
-385
-360
-367
-356
-350
-333
-314
-297
-288
-263
-226
-177
-145
-98
-48
13
79
144
211
292
390
495
587
699
817
949
1084
1213
1344
1486
1648
1800
1947
2106
2274
2456
2647
2840
3048
3274
3527
3779
4038
4312
4600
4899
5198
5479
5759
6024
6286
6484
6657
6793
6900
6975
7018
7026
7019
6998
6980
6917
6864
6800
6740
6676
6604
6518
6435
6352
6269
6161
6056
5946
5836
5719
5589
5445
5302
5164
5019
4847
4679
4501
4323
4138
3938
3732
3529
3341
3134
2918
2706
2496
2290
2082
1868
1657
1456
1274
1085
898
718
551
393
240
80
-61
-190
-288
-412
-521
-627
-725
-820
-912
-1013
-1100
-1180
-1237
-1330
-1403
-1481
-1550
-1618
-1690
-1769
-1838
-1896
-1947
-2015
-2073
-2131
-2181
-2230
-2282
-2338
-2380
-2407
-2432
-2472
-2497
-2520
-2535
-2549
-2570
-2591
-2602
-2593
-2598
-2608
-2612
-2613
-2610
-2607
-2613
-2618
-2620
-2609
-2615
-2624
-2634
-2641
-2647
-2656
-2682
-2696
-2705
-2693
-2710
-2718
-2727
-2728
-2728
-2727
-2736
-2732
-2721
-2687
-2692
-2678
-2668
-2651
-2635
-2623
-2617
-2604
-2581
-2555
-2549
-2534
-2524
-2509
-2497
-2492
-2493
-2483
-2458
-2435
-2428
-2410
-2391
-2366
-2340
-2324
-2304
-2276
-2227
-2192
-2161
-2124
-2084
-2042
-2000
-1965
-1930
-1891
-1835
-1799
-1762
-1728
-1688
-1647
-1610
-1591
-1562
-1530
-1482
-1463
-1438
-1418
-1394
-1371
-1352
-1345
-1326
-1301
-1255
-1246
-1219
-1196
-1164
-1131
-1102
-1079
-1049
-1011
-968
-946
-917
-893
-863
-836
-818
-805
-784
-751
-724
-715
-700
-688
-673
-662
-663
-664
-658
-633
-626
-624
-616
-606
-592
-579
-572
-564
-550
-517
-506
-491
-477
-456
-436
-421
-423
-416
-406
-380
-380
-373
-369
-361
-353
-349
-362
-362
-358
-336
-352
-353
-357
-355
-353
-354
-359
-355
-341
-323
-325
-316
-308
-294
-281
-277
-277
-267
-243
-226
-227
-223
-221
-217
-215
-227
-239
-245
-234
-242
-255
-265
-276
-286
-297
-317
-334
-344
-332
-345
-347
-351
-347
-341
-337
-345
-344
-338
-318
-322
-318
-318
-314
-311
-313
-332
-339
-343
-330
-352
-359
-370
-375
-382
-394
-411
-422
-424
-422
-442
-450
-458
-459
-458
-465
-473
-472
-456
-445
-450
-448
-448
-444
-442
-452
-460
-462
-447
-449
-458
-465
-472
-479
-488
-508
-525
-537
-527
-548
-559
-574
-582
-588
-597
-617
-626
-630
-616
-626
-627
-630
-626
-621
-621
-636
-638
-635
-617
-629
-630
-636
-637
-640
-649
-664
-672
-670
-666
-683
-689
-697
-698
-699
-710
-723
-727
-715
-710
-718
-718
-717
-711
-706
-713
-715
-709
-686
-678
-677
-673
-669
-663
-660
-669
-673
-674
-652
-665
-667
-672
-673
-674
-678
-692
-699
-702
-689
-704
-708
-716
-715
-715
-717
-732
-731
-722
-698
-698
-687
-676
-662
-649
-642
-642
-635
-620
-603
-609
-605
-605
-600
-598
-605
-616
-620
-609
-610
-622
-628
-633
-634
-636
-649
-658
-659
-643
-639
-640
-637
-631
-622
-613
-615
-610
-601
-568
-571
-562
-557
-548
-540
-535
-539
-537
-529
-504
-508
-500
-497
-485
-475
-468
-474
-466
-450
-422
-415
-397
-378
-353
-326
-303
-285
-255
-211
-163
-135
-95
-57
-13
28
59
85
117
165
200
225
254
284
316
345
361
378
399
433
455
469
486
504
524
544
550
565
586
632
644
669
692
720
749
775
791
813
838
880
886
905
916
934
948
956
952
959
971
987
981
980
975
974
971
962
948
943
951
961
951
953
954
962
968
963
957
960
979
984
981
982
985
990
991
980
969
962
968
960
947
934
923
913
901
871
851
834
840
813
797
780
769
760
750
732
723
721
738
720
720
715
716
716
711
696
690
691
695
679
668
653
641
628
607
582
566
563
560
538
525
511
501
491
472
453
443
453
450
441
436
433
433
431
419
407
401
409
403
394
385
378
372
363
337
322
310
319
297
283
266
254
241
226
199
181
168
176
146
136
122
117
114
108
95
92
98
110
102
102
99
100
100
92
77
71
76
79
60
50
39
31
20
-2
-24
-40
-36
-49
-70
-86
-101
-112
-124
-142
-159
-167
-157
-161
-164
-165
-159
-150
-143
-152
-150
-144
-117
-119
-114
-112
-106
-101
-101
-114
-118
-117
-97
-115
-116
-123
-123
-124
-130
-143
-148
-145
-137
-149
-149
-150
-144
-138
-137
-140
-133
-114
-98
-102
-97
-95
-88
-85
-94
-102
-106
-91
-95
-106
-115
-123
-130
-138
-155
-173
-185
-179
-194
-206
-218
-225
-229
-234
-252
-259
-258
-238
-241
-236
-234
-228
-223
-223
-237
-241
-240
-221
-241
-245
-255
-261
-269
-282
-302
-316
-321
-323
-346
-358
-372
-378
-383
-395
-409
-412
-398
-388
-393
-388
-383
-372
-361
-362
-362
-356
-333
-329
-333
-334
-336
-337
-340
-352
-365
-374
-365
-382
-395
-410
-420
-428
-439
-462
-474
-478
-463
-469
-465
-463
-453
-442
-433
-436
-422
-401
-360
-354
-333
-317
-295
-275
-262
-256
-244
-223
-201
-200
-187
-178
-163
-150
-146
-149
-146
-132
-127
-142
-151
-161
-167
-175
-193
-209
-216
-202
-200
-199
-190
-174
-151
-128
-112
-92
-66
-18
2
30
57
92
132
174
210
261
325
410
480
567
661
772
894
1024
1150
1300
1467
1660
1830
2022
2217
2424
2636
2849
3064
3294
3542
3799
4040
4298
4556
4823
5091
5352
5611
5880
6166
6445
6711
6980
7241
7491
7715
7900
8054
8182
8294
8359
8389
8401
8394
8375
8341
8287
8228
8169
8130
8058
7994
7924
7856
7785
7705
7605
7500
7383
7264
7102
6935
6748
6555
6349
6128
5883
5643
5402
5168
4898
4634
4366
4103
3840
3575
3308
3054
2816
2589
2347
2124
1906
1699
1498
1294
1094
908
743
576
402
239
81
-68
-215
-370
-518
-656
-772
-896
-1022
-1138
-1249
-1350
-1449
-1553
-1649
-1735
-1792
-1879
-1948
-2016
-2074
-2128
-2180
-2238
-2287
-2328
-2351
-2399
-2434
-2472
-2498
-2522
-2547
-2583
-2604
-2615
-2615
-2638
-2651
-2664
-2673
-2681
-2694
-2711
-2718
-2713
-2705
-2719
-2722
-2726
-2726
-2726
-2734
-2745
-2744
-2727
-2718
-2721
-2716
-2710
-2700
-2693
-2696
-2695
-2688
-2664
-2652
-2645
-2635
-2621
-2605
-2590
-2589
-2580
-2566
-2527
-2523
-2506
-2492
-2473
-2454
-2439
-2433
-2422
-2406
-2373
-2372
-2356
-2346
-2328
-2310
-2296
-2293
-2279
-2257
-2227
-2218
-2200
-2184
-2162
-2142
-2126
-2117
-2099
-2068
-2038
-2030
-2011
-1996
-1976
-1959
-1952
-1947
-1934
-1906
-1889
-1884
-1874
-1863
-1850
-1837
-1835
-1831
-1821
-1796
-1782
-1773
-1762
-1749
-1735
-1723
-1725
-1718
-1706
-1671
-1669
-1656
-1646
-1631
-1616
-1603
-1602
-1595
-1584
-1556
-1565
-1558
-1557
-1550
-1545
-1545
-1556
-1557
-1550
-1537
-1543
-1540
-1539
-1532
-1524
-1521
-1524
-1517
-1497
-1476
-1473
-1460
-1448
-1429
-1411
-1401
-1392
-1376
-1342
-1324
-1314
-1302
-1288
-1273
-1259
-1254
-1247
-1234
-1206
-1190
-1178
-1163
-1142
-1119
-1096
-1087
-1065
-1036
-981
-958
-924
-892
-855
-818
-785
-763
-733
-699
-646
-630
-598
-573
-543
-516
-498
-491
-477
-457
-436
-436
-429
-426
-418
-412
-412
-419
-416
-401
-387
-391
-384
-378
-366
-353
-350
-345
-332
-302
-287
-278
-264
-249
-231
-215
-207
-199
-185
-159
-149
-144
-141
-135
-130
-127
-140
-142
-140
-116
-122
-119
-117
-111
-104
-99
-104
-99
-87
-54
-58
-43
-34
-17
-1
9
10
18
35
56
56
64
67
73
76
70
56
50
56
60
45
41
36
37
38
29
22
24
45
51
52
58
65
77
88
92
96
105
128
132
136
137
142
148
150
136
132
130
145
131
123
110
101
93
82
60
52
51
72
56
60
60
69
78
82
81
87
102
122
121
129
133
141
144
138
124
117
122
121
103
92
79
70
56
30
3
-17
-17
-34
-55
-68
-78
-83
-86
-96
-103
-104
-86
-88
-86
-83
-74
-63
-54
-59
-54
-45
-20
-22
-18
-17
-13
-9
-9
-23
-26
-22
-1
-16
-14
-15
-11
-5
-4
-7
0
18
42
46
62
75
94
110
117
119
129
152
170
171
180
188
199
207
201
196
196
216
217
214
215
217
222
226
222
220
224
249
249
258
265
280
297
312
315
326
340
369
372
382
387
397
407
412
401
403
410
433
420
421
417
416
415
407
393
385
387
391
373
367
358
355
353
343
330
326
339
345
336
334
330
329
325
307
290
277
281
268
247
229
210
191
168
134
101
71
62
22
-10
-45
-74
-101
-129
-168
-198
-222
-228
-258
-277
-298
-311
-323
-339
-370
-386
-397
-392
-418
-433
-451
-465
-479
-498
-522
-540
-548
-554
-584
-603
-625
-642
-660
-686
-713
-729
-726
-729
-743
-746
-747
-741
-734
-735
-731
-716
-681
-660
-643
-621
-599
-577
-557
-549
-539
-527
-492
-491
-481
-476
-468
-460
-458
-468
-473
-475
-462
-476
-479
-485
-483
-482
-484
-499
-500
-493
-472
-477
-469
-463
-451
-439
-432
-431
-422
-403
-383
-385
-377
-372
-362
-354
-354
-359
-356
-339
-332
-338
-339
-340
-338
-337
-346
-351
-348
-326
-317
-313
-304
-293
-278
-264
-261
-250
-234
-193
-186
-168
-153
-133
-114
-98
-94
-84
-69
-38
-37
-24
-17
-4
7
12
4
7
19
41
40
48
56
69
82
89
90
101
124
148
151
165
177
193
209
215
217
227
250
260
258
261
263
267
269
259
251
247
257
254
243
234
227
223
218
202
194
193
218
209
213
214
221
227
230
224
224
230
252
242
244
239
240
238
230
207
196
191
192
172
158
142
129
114
93
67
50
47
45
25
17
9
9
8
-1
-12
-13
2
4
-2
-2
-1
3
5
-5
-14
-18
-9
-15
-28
-40
-51
-61
-73
-101
-120
-134
-125
-150
-163
-178
-187
-193
-199
-213
-218
-215
-192
-203
-198
-198
-191
-186
-186
-197
-197
-189
-176
-182
-182
-186
-185
-187
-197
-214
-223
-221
-221
-241
-251
-263
-268
-274
-288
-302
-308
-294
-292
-296
-293
-287
-276
-266
-266
-265
-259
-239
-233
-232
-231
-229
-227
-228
-245
-252
-255
-237
-252
-259
-269
-274
-280
-288
-306
-314
-317
-299
-319
-320
-327
-324
-321
-323
-332
-332
-322
-307
-313
-311
-314
-312
-312
-320
-335
-341
-334
-328
-343
-349
-357
-362
-370
-390
-411
-426
-421
-432
-450
-462
-472
-478
-486
-501
-515
-522
-511
-516
-520
-522
-518
-513
-511
-525
-528
-527
-506
-516
-517
-521
-521
-520
-522
-537
-541
-542
-522
-542
-544
-551
-552
-552
-557
-566
-566
-555
-538
-539
-529
-521
-504
-487
-473
-463
-442
-406
-371
-353
-324
-297
-265
-236
-219
-201
-177
-133
-108
-89
-67
-46
-24
-6
3
9
19
44
49
56
61
71
83
92
86
91
102
133
140
154
167
185
204
220
222
236
255
292
289
302
309
324
336
342
341
345
355
368
358
357
352
352
352
345
334
334
347
358
352
355
358
366
374
371
370
377
404
413
417
424
431
441
448
446
444
447
467
464
463
459
458
457
451
430
418
412
423
410
405
399
400
401
400
386
385
392
419
409
416
418
426
432
432
425
424
431
442
430
428
424
424
422
412
395
385
389
386
366
355
343
336
328
311
296
289
302
299
292
290
288
289
289
280
273
271
288
276
272
263
258
253
244
221
206
195
199
179
165
148
136
124
109
80
68
63
78
61
60
57
61
64
63
56
55
64
76
66
68
66
70
72
63
50
44
52
53
38
30
22
17
10
-9
-24
-34
-26
-35
-49
-57
-64
-68
-71
-82
-87
-88
-65
-72
-70
-70
-65
-59
-57
-66
-67
-63
-44
-50
-48
-51
-48
-47
-50
-69
-74
-72
-56
-69
-71
-76
-77
-78
-85
-97
-101
-95
-85
-97
-97
-99
-94
-89
-94
-103
-103
-88
-82
-89
-89
-89
-85
-84
-97
-108
-114
-103
-107
-119
-128
-137
-144
-152
-172
-187
-197
-183
-202
-209
-218
-221
-223
-225
-235
-236
-231
-210
-216
-212
-212
-205
-200
-199
-214
-215
-209
-191
-199
-199
-203
-203
-206
-215
-231
-240
-238
-234
-251
-255
-262
-263
-266
-278
-293
-298
-287
-285
-292
-291
-290
-284
-280
-287
-291
-289
-271
-268
-271
-272
-271
-269
-267
-280
-287
-291
-272
-289
-296
-307
-313
-318
-324
-340
-348
-351
-336
-349
-348
-352
-347
-341
-337
-344
-336
-319
-293
-288
-274
-262
-245
-228
-218
-212
-197
-171
-144
-139
-125
-115
-102
-92
-93
-97
-95
-77
-70
-71
-66
-60
-50
-42
-44
-43
-34
-8
8
18
32
47
64
79
78
85
95
129
126
135
141
152
162
168
164
164
168
188
174
175
170
175
180
182
174
178
191
213
214
226
236
252
267
275
278
290
314
338
340
352
360
371
378
374
368
369
387
391
384
381
378
376
372
357
345
340
351
352
349
351
356
364
371
364
368
378
411
411
421
429
440
450
455
448
447
449
469
452
450
442
440
437
427
407
396
392
392
374
364
354
350
347
339
327
325
338
349
341
344
344
346
345
331
314
301
302
282
250
220
189
160
129
90
55
29
22
7
-5
-11
-11
-8
-5
-16
-14
-7
23
25
38
53
75
101
128
148
180
222
289
321
377
433
503
580
657
732
822
927
1046
1153
1276
1400
1534
1669
1802
1932
2078
2244
2416
2580
2764
2959
3170
3393
3616
3849
4102
4386
4664
4941
5224
5503
5773
6022
6237
6422
6581
6723
6818
6884
6923
6944
6946
6927
6878
6829
6779
6743
6677
6615
6547
6477
6400
6312
6205
6103
6001
5915
5785
5669
5542
5417
5284
5139
4982
4825
4671
4514
4330
4149
3961
3773
3580
3378
3168
2967
2779
2588
2379
2180
1981
1788
1598
1400
1207
1027
870
701
532
374
224
84
-50
-186
-313
-430
-524
-634
-737
-836
-926
-1011
-1095
-1190
-1271
-1344
-1396
-1470
-1534
-1599
-1657
-1713
-1771
-1841
-1897
-1947
-1975
-2039
-2084
-2131
-2171
-2209
-2250
-2294
-2327
-2348
-2360
-2389
-2404
-2420
-2428
-2435
-2449
-2465
-2472
-2464
-2459
-2470
-2471
-2471
-2465
-2460
-2467
-2471
-2469
-2449
-2447
-2450
-2448
-2443
-2434
-2424
-2421
-2414
-2401
-2367
-2356
-2340
-2324
-2301
-2275
-2250
-2238
-2216
-2189
-2145
-2126
-2101
-2081
-2056
-2031
-2010
-2004
-1984
-1959
-1916
-1911
-1893
-1881
-1867
-1856
-1853
-1856
-1853
-1840
-1824
-1830
-1823
-1819
-1809
-1799
-1798
-1799
-1790
-1764
-1742
-1733
-1715
-1696
-1671
-1647
-1635
-1621
-1601
-1563
-1542
-1526
-1506
-1486
-1465
-1448
-1441
-1434
-1425
-1397
-1400
-1396
-1396
-1389
-1381
-1374
-1380
-1377
-1368
-1343
-1341
-1331
-1322
-1306
-1289
-1275
-1273
-1257
-1233
-1192
-1183
-1162
-1145
-1123
-1103
-1088
-1079
-1064
-1040
-1015
-1014
-1002
-996
-986
-979
-981
-987
-983
-963
-949
-947
-935
-924
-908
-894
-891
-885
-872
-841
-824
-812
-795
-777
-755
-736
-726
-715
-699
-662
-658
-645
-637
-624
-612
-604
-610
-609
-606
-588
-597
-597
-602
-600
-597
-596
-609
-606
-595
-570
-571
-560
-552
-538
-524
-515
-512
-500
-480
-458
-460
-453
-451
-446
-443
-451
-464
-469
-461
-464
-482
-494
-507
-516
-527
-551
-570
-581
-573
-578
-587
-591
-592
-588
-585
-593
-594
-591
-562
-567
-560
-556
-546
-536
-530
-534
-534
-530
-511
-522
-523
-530
-530
-531
-537
-558
-565
-564
-553
-566
-570
-575
-575
-575
-579
-587
-586
-573
-558
-565
-563
-563
-558
-553
-558
-566
-565
-547
-541
-547
-548
-550
-549
-552
-567
-580
-588
-580
-586
-599
-609
-616
-622
-628
-646
-656
-660
-638
-651
-650
-652
-648
-644
-644
-653
-655
-651
-631
-641
-637
-638
-631
-626
-626
-638
-640
-636
-625
-639
-644
-653
-658
-665
-677
-695
-703
-698
-690
-702
-701
-701
-693
-685
-683
-682
-672
-646
-633
-630
-621
-612
-601
-593
-596
-598
-593
-574
-568
-568
-567
-566
-563
-563
-578
-583
-583
-558
-564
-557
-550
-536
-519
-503
-495
-479
-455
-410
-397
-367
-345
-315
-287
-266
-257
-240
-217
-190
-185
-174
-166
-155
-146
-145
-151
-150
-137
-126
-134
-133
-133
-128
-123
-125
-127
-121
-96
-85
-81
-70
-57
-39
-22
-15
-6
9
39
55
66
76
90
105
117
112
118
129
162
162
171
176
185
194
199
194
199
210
243
241
259
273
295
316
333
342
362
392
426
441
465
486
513
537
553
562
579
606
632
637
652
664
679
692
693
692
697
718
722
719
721
725
733
740
740
741
747
769
776
780
785
792
801
806
796
796
799
821
811
808
800
795
789
779
757
745
738
750
723
713
696
686
675
659
637
624
621
625
610
605
597
596
595
587
573
568
578
585
574
573
570
571
569
555
540
532
543
536
522
512
502
495
485
466
446
431
431
414
397
381
372
364
354
330
319
313
329
318
315
310
310
311
310
295
291
293
315
298
298
292
291
289
282
267
259
259
262
244
235
221
213
204
188
169
161
169
175
167
168
170
177
181
173
164
162
178
175
166
160
156
152
146
131
116
106
113
97
83
69
61
54
44
20
6
-3
6
-11
-19
-28
-31
-32
-35
-51
-54
-51
-30
-47
-48
-55
-57
-61
-72
-88
-99
-101
-101
-122
-135
-150
-160
-171
-190
-213
-227
-226
-230
-249
-258
-267
-270
-274
-287
-298
-301
-284
-282
-285
-284
-283
-280
-279
-286
-293
-296
-280
-291
-295
-303
-305
-307
-314
-334
-346
-353
-343
-358
-364
-373
-375
-376
-378
-393
-393
-384
-356
-360
-348
-337
-319
-300
-283
-272
-254
-225
-192
-181
-159
-140
-117
-95
-81
-73
-57
-27
-4
2
14
24
34
42
37
34
38
60
65
65
69
74
82
88
86
88
95
125
124
131
136
147
158
165
159
160
165
184
179
182
181
186
190
189
172
169
171
188
173
171
167
168
169
165
157
157
168
181
173
177
180
189
196
196
192
198
217
228
223
224
223
225
225
213
204
200
213
210
199
190
180
171
160
138
121
110
123
103
96
87
85
84
81
70
66
68
88
82
86
87
94
99
99
83
80
83
99
87
86
81
80
76
66
49
39
39
41
21
15
7
8
9
2
-6
-5
12
20
15
18
22
30
37
33
31
36
55
59
55
53
51
51
50
34
25
19
36
17
8
-6
-15
-23
-33
-52
-64
-69
-56
-71
-71
-76
-73
-70
-70
-83
-82
-74
-56
-61
-58
-58
-54
-53
-58
-71
-75
-70
-64
-80
-85
-95
-99
-106
-123
-142
-153
-147
-151
-165
-172
-177
-176
-175
-184
-189
-186
-167
-161
-161
-158
-152
-144
-136
-142
-140
-132
-100
-105
-99
-98
-93
-89
-88
-96
-99
-98
-80
-95
-97
-105
-106
-106
-111
-125
-126
-119
-102
-105
-99
-94
-83
-74
-71
-74
-67
-49
-31
-34
-27
-23
-15
-9
-16
-28
-33
-23
-27
-41
-51
-59
-66
-74
-92
-108
-117
-111
-116
-125
-130
-131
-128
-126
-137
-138
-135
-108
-116
-113
-114
-112
-111
-113
-126
-133
-137
-124
-148
-157
-173
-182
-193
-208
-233
-248
-255
-256
-275
-287
-300
-306
-312
-322
-337
-340
-329
-317
-322
-317
-311
-300
-291
-291
-294
-291
-272
-269
-276
-279
-282
-283
-285
-298
-309
-314
-303
-304
-306
-306
-300
-290
-280
-284
-277
-263
-226
-220
-203
-186
-165
-142
-122
-113
-97
-76
-36
-35
-18
-9
6
19
27
25
32
47
65
61
65
64
67
69
64
53
52
65
79
74
80
86
97
106
106
105
115
144
157
162
170
179
189
194
190
185
185
199
197
193
189
188
188
185
164
155
151
167
154
149
144
143
143
140
126
123
124
147
131
134
131
135
139
138
130
131
139
150
139
138
132
132
130
121
107
101
108
110
94
87
77
73
66
49
34
28
42
39
32
30
30
34
37
34
31
34
53
54
56
57
62
66
66
50
44
42
58
48
45
39
37
35
29
9
0
-4
13
-8
-10
-15
-13
-9
-10
-15
-13
-1
16
12
18
21
30
37
36
29
30
44
52
42
41
37
36
33
18
4
-5
5
-4
-18
-29
-39
-46
-53
-67
-79
-83
-67
-75
-76
-79
-75
-68
-64
-75
-76
-71
-49
-53
-51
-54
-53
-53
-58
-80
-89
-93
-78
-99
-105
-114
-119
-125
-136
-153
-162
-162
-156
-170
-173
-176
-171
-166
-169
-176
-174
-158
-148
-155
-153
-151
-145
-141
-150
-158
-161
-147
-150
-160
-165
-171
-174
-178
-191
-203
-211
-199
-215
-224
-235
-239
-242
-245
-260
-265
-264
-245
-250
-246
-245
-239
-234
-233
-247
-246
-239
-214
-223
-219
-220
-217
-216
-222
-234
-241
-238
-232
-248
-253
-261
-265
-271
-285
-303
-312
-306
-306
-318
-321
-324
-321
-317
-324
-328
-326
-305
-300
-302
-300
-296
-289
-283
-287
-289
-286
-263
-274
-276
-282
-283
-285
-290
-305
-311
-312
-295
-300
-295
-292
-279
-264
-252
-251
-234
-208
-166
-154
-131
-112
-89
-68
-53
-44
-27
-1
29
36
55
70
91
110
118
123
137
165
184
190
203
217
236
253
258
267
283
316
336
349
369
390
414
435
444
457
472
508
508
515
517
523
528
529
520
517
518
534
520
515
505
502
499
491
470
465
467
482
472
473
472
477
482
482
478
483
500
520
517
524
528
535
538
530
518
513
521
519
505
497
489
483
473
450
429
414
414
402
385
374
365
360
356
341
333
330
353
340
341
339
342
345
343
332
326
323
335
315
306
292
285
278
266
242
231
227
232
215
206
195
189
182
171
156
150
156
164
151
150
146
147
148
140
128
125
139
141
133
131
129
130
127
112
100
95
105
103
93
85
78
73
66
43
28
18
34
15
10
3
2
4
4
-5
-8
-4
18
7
12
12
20
28
31
21
21
27
39
28
25
19
18
14
5
-10
-17
-13
-10
-29
-38
-49
-53
-58
-71
-84
-87
-71
-68
-72
-69
-64
-56
-50
-54
-56
-52
-35
-32
-34
-36
-38
-39
-43
-63
-74
-82
-66
-84
-93
-103
-111
-119
-130
-151
-164
-170
-156
-176
-176
-180
-175
-170
-168
-175
-172
-161
-146
-152
-150
-152
-149
-148
-155
-170
-177
-172
-170
-188
-198
-209
-215
-223
-241
-259
-270
-262
-270
-285
-295
-303
-308
-313
-326
-336
-338
-323
-321
-319
-317
-311
-303
-296
-306
-304
-298
-271
-275
-271
-270
-266
-263
-263
-275
-279
-278
-256
-273
-272
-277
-276
-274
-277
-286
-287
-278
-263
-266
-258
-252
-239
-226
-219
-217
-205
-180
-158
-154
-142
-132
-118
-106
-106
-107
-101
-78
-74
-77
-76
-75
-72
-72
-80
-89
-93
-81
-86
-91
-98
-99
-99
-100
-116
-119
-116
-92
-97
-94
-93
-87
-82
-81
-93
-96
-96
-79
-105
-117
-139
-158
-182
-212
-249
-279
-297
-308
-335
-346
-354
-349
-340
-333
-329
-314
-283
-255
-243
-220
-196
-164
-132
-108
-81
-43
17
62
105
156
211
274
340
404
475
557
661
750
850
958
1079
1208
1340
1463
1605
1759
1937
2096
2270
2452
2650
2861
3081
3300
3542
3800
4087
4345
4631
4922
5227
5533
5830
6111
6379
6631
6857
7031
7183
7299
7389
7449
7475
7475
7467
7457
7432
7383
7337
7287
7239
7188
7119
7044
6967
6901
6810
6708
6602
6491
6375
6250
6109
5961
5811
5673
5503
5332
5151
4969
4782
4588
4374
4165
3958
3764
3544
3329
3110
2898
2687
2476
2255
2054
1866
1704
1513
1345
1179
1026
880
736
593
464
349
244
122
13
-96
-196
-294
-397
-501
-593
-668
-745
-834
-914
-991
-1063
-1136
-1218
-1296
-1364
-1410
-1469
-1530
-1584
-1633
-1677
-1717
-1764
-1805
-1838
-1848
-1884
-1909
-1935
-1952
-1965
-1980
-2007
-2024
-2035
-2031
-2050
-2061
-2073
-2079
-2085
-2094
-2118
-2127
-2131
-2119
-2140
-2148
-2159
-2164
-2170
-2181
-2195
-2201
-2197
-2189
-2203
-2204
-2207
-2204
-2202
-2207
-2214
-2210
-2191
-2180
-2182
-2178
-2175
-2169
-2165
-2174
-2181
-2182
-2165
-2165
-2171
-2174
-2177
-2179
-2183
-2198
-2208
-2213
-2194
-2206
-2206
-2208
-2203
-2196
-2190
-2192
-2186
-2175
-2147
-2144
-2129
-2118
-2100
-2082
-2068
-2069
-2055
-2036
-2004
-2001
-1988
-1978
-1965
-1954
-1951
-1954
-1950
-1937
-1921
-1927
-1921
-1916
-1906
-1896
-1895
-1896
-1888
-1863
-1845
-1840
-1828
-1816
-1800
-1785
-1780
-1773
-1758
-1725
-1706
-1694
-1677
-1660
-1640
-1621
-1613
-1599
-1582
-1540
-1533
-1513
-1496
-1473
-1450
-1430
-1420
-1403
-1382
-1345
-1336
-1315
-1298
-1272
-1247
-1228
-1222
-1203
-1177
-1140
-1128
-1107
-1087
-1064
-1043
-1029
-1023
-1010
-988
-965
-966
-957
-952
-943
-935
-938
-946
-945
-928
-921
-925
-922
-918
-910
-901
-902
-898
-886
-858
-841
-832
-819
-804
-786
-770
-767
-757
-742
-703
-701
-687
-679
-668
-659
-655
-663
-666
-665
-647
-661
-659
-661
-656
-650
-647
-655
-650
-634
-608
-601
-583
-566
-543
-522
-506
-496
-479
-451
-423
-416
-400
-388
-371
-357
-355
-357
-353
-334
-330
-337
-339
-341
-341
-343
-356
-367
-371
-360
-359
-363
-363
-360
-354
-347
-353
-348
-338
-303
-303
-292
-285
-275
-265
-259
-263
-262
-256
-232
-244
-242
-248
-248
-251
-259
-279
-289
-291
-284
-296
-298
-301
-298
-294
-297
-306
-303
-287
-268
-269
-258
-249
-235
-221
-217
-216
-209
-185
-177
-177
-174
-170
-164
-161
-169
-178
-183
-174
-180
-192
-202
-210
-215
-221
-242
-250
-252
-228
-236
-232
-228
-218
-207
-198
-199
-191
-177
-145
-150
-139
-136
-127
-120
-120
-130
-132
-128
-119
-129
-132
-140
-144
-151
-166
-185
-193
-186
-179
-189
-186
-183
-173
-164
-166
-167
-160
-136
-127
-124
-117
-108
-96
-88
-89
-92
-90
-77
-78
-83
-89
-90
-89
-91
-109
-117
-120
-102
-115
-119
-124
-124
-122
-119
-127
-123
-113
-82
-88
-74
-66
-50
-34
-23
-19
-8
11
34
36
45
50
59
65
64
57
60
77
91
88
94
99
108
116
114
113
120
149
161
168
179
193
209
223
229
235
244
268
274
281
286
296
307
315
308
312
320
348
348
353
356
362
367
368
354
351
352
374
356
356
353
357
363
365
363
370
387
408
408
417
423
434
443
444
439
442
458
469
462
462
459
460
458
445
433
429
445
445
440
441
443
449
454
452
450
455
478
480
488
495
508
521
530
524
527
533
556
552
553
550
551
550
545
523
511
504
513
483
469
449
434
417
395
368
349
339
333
308
295
281
274
269
258
244
241
253
258
246
243
238
237
233
217
202
192
201
191
175
162
150
140
128
107
88
73
78
56
41
25
16
9
1
-20
-30
-34
-20
-28
-27
-29
-25
-21
-21
-36
-38
-35
-15
-31
-33
-39
-41
-44
-53
-68
-75
-74
-69
-86
-93
-102
-105
-108
-117
-130
-131
-117
-107
-110
-104
-97
-83
-68
-64
-57
-44
-12
2
9
19
28
39
47
44
42
45
69
61
61
57
57
56
53
36
27
23
36
26
26
24
31
39
43
33
38
50
80
78
90
98
110
119
122
118
120
130
143
131
130
126
125
122
108
89
78
82
77
58
48
41
40
39
27
19
19
37
42
41
45
52
61
69
68
70
76
106
100
103
100
101
101
98
84
75
72
83
67
60
48
42
35
23
-2
-11
-11
5
-4
0
3
11
17
19
15
20
35
51
45
50
51
57
59
52
39
33
42
41
28
21
16
14
12
-4
-16
-23
-13
-17
-28
-35
-40
-41
-42
-55
-61
-62
-39
-50
-50
-53
-50
-46
-44
-51
-53
-50
-32
-44
-45
-52
-53
-55
-62
-82
-89
-89
-81
-97
-106
-118
-124
-132
-145
-162
-170
-164
-155
-165
-162
-159
-151
-143
-146
-152
-150
-131
-123
-125
-122
-120
-115
-113
-124
-133
-136
-125
-127
-135
-141
-145
-147
-150
-168
-178
-183
-164
-179
-182
-187
-186
-183
-180
-185
-182
-173
-147
-155
-149
-149
-142
-137
-136
-147
-147
-139
-124
-130
-129
-131
-129
-129
-137
-151
-156
-150
-144
-160
-165
-172
-172
-172
-180
-187
-183
-159
-146
-139
-124
-106
-85
-65
-57
-47
-32
-4
11
19
29
41
54
65
59
60
66
94
87
91
92
96
100
101
92
90
93
115
100
103
100
105
109
109
99
99
107
120
112
112
109
111
110
103
89
84
91
96
81
76
68
65
60
45
28
19
27
22
11
5
1
1
0
-9
-16
-16
0
5
7
10
18
27
33
24
25
29
56
50
53
53
57
61
61
48
43
42
59
38
34
24
23
23
18
7
6
14
29
25
31
37
49
61
66
65
74
95
113
110
115
117
123
125
116
105
100
112
107
94
83
73
64
54
35
19
9
17
10
4
-2
-3
-2
-2
-17
-20
-16
8
4
9
12
18
24
24
11
5
3
21
0
-4
-13
-17
-23
-34
-54
-69
-75
-78
-101
-113
-127
-134
-140
-151
-165
-168
-157
-149
-156
-153
-149
-140
-132
-134
-136
-133
-111
-110
-115
-117
-120
-121
-123
-133
-143
-148
-137
-145
-153
-163
-169
-173
-179
-200
-207
-208
-189
-193
-188
-185
-177
-168
-161
-167
-161
-149
-116
-122
-110
-103
-93
-85
-84
-90
-90
-82
-70
-80
-80
-83
-82
-82
-90
-104
-109
-100
-94
-104
-103
-102
-95
-87
-90
-91
-85
-60
-52
-50
-45
-38
-30
-22
-23
-26
-25
-6
-13
-16
-21
-22
-21
-24
-41
-48
-51
-38
-49
-54
-63
-66
-68
-71
-87
-88
-81
-54
-61
-52
-45
-32
-20
-13
-13
-7
8
26
22
28
31
38
42
36
25
21
30
33
19
15
9
8
5
-10
-23
-28
-13
-15
-21
-23
-21
-17
-13
-17
-19
-16
6
1
2
0
5
11
14
5
5
10
30
25
26
22
22
19
8
-23
-43
-59
-61
-98
-120
-145
-163
-179
-196
-214
-219
-207
-186
-182
-162
-145
-121
-100
-86
-75
-55
-18
13
32
60
90
127
167
198
237
290
366
433
501
581
671
774
886
998
1122
1260
1428
1572
1731
1892
2064
2244
2431
2615
2813
3023
3257
3477
3715
3957
4214
4480
4750
5015
5305
5608
5928
6215
6506
6780
7038
7268
7462
7616
7743
7847
7922
7948
7961
7953
7935
7904
7857
7804
7756
7722
7679
7621
7565
7502
7435
7359
7263
7161
7057
6960
6835
6691
6537
6372
6197
6012
5806
5598
5388
5197
4967
4744
4514
4287
4058
3825
3581
3343
3111
2898
2660
2438
2217
2009
1806
1605
1395
1205
1026
864
680
511
347
193
45
-103
-249
-381
-496
-604
-728
-838
-945
-1042
-1135
-1232
-1326
-1406
-1467
-1534
-1608
-1672
-1734
-1789
-1844
-1909
-1968
-2019
-2054
-2100
-2151
-2197
-2240
-2281
-2322
-2374
-2417
-2453
-2461
-2501
-2527
-2553
-2571
-2587
-2605
-2630
-2647
-2658
-2652
-2673
-2680
-2691
-2692
-2694
-2700
-2718
-2724
-2724
-2714
-2725
-2727
-2730
-2728
-2726
-2729
-2738
-2737
-2726
-2713
-2719
-2715
-2713
-2703
-2694
-2693
-2692
-2682
-2656
-2641
-2636
-2626
-2614
-2600
-2586
-2583
-2576
-2564
-2536
-2520
-2510
-2498
-2484
-2468
-2453
-2452
-2443
-2428
-2389
-2382
-2364
-2349
-2329
-2308
-2290
-2282
-2266
-2246
-2207
-2201
-2178
-2162
-2138
-2116
-2101
-2097
-2084
-2064
-2036
-2029
-2013
-1999
-1979
-1960
-1947
-1940
-1923
-1894
-1864
-1854
-1834
-1816
-1792
-1767
-1752
-1738
-1716
-1678
-1654
-1640
-1621
-1600
-1577
-1554
-1543
-1531
-1513
-1483
-1466
-1456
-1445
-1431
-1415
-1400
-1400
-1388
-1371
-1329
-1318
-1296
-1274
-1246
-1219
-1194
-1179
-1157
-1127
-1078
-1065
-1036
-1013
-985
-959
-939
-930
-913
-889
-861
-853
-839
-828
-814
-803
-800
-805
-801
-784
-768
-771
-763
-755
-742
-729
-725
-722
-711
-682
-669
-663
-653
-640
-625
-611
-607
-603
-594
-572
-566
-566
-566
-565
-563
-564
-582
-588
-591
-571
-581
-580
-580
-575
-568
-561
-565
-557
-542
-505
-504
-485
-472
-450
-430
-414
-406
-390
-366
-338
-330
-314
-302
-287
-273
-269
-273
-270
-255
-244
-252
-252
-255
-253
-252
-260
-269
-270
-250
-245
-245
-238
-227
-211
-195
-187
-179
-166
-137
-125
-115
-107
-94
-82
-74
-83
-81
-75
-51
-57
-59
-65
-68
-73
-81
-101
-110
-114
-98
-119
-122
-129
-127
-125
-127
-135
-134
-123
-107
-112
-108
-109
-104
-102
-108
-120
-125
-118
-115
-131
-139
-149
-156
-166
-187
-209
-224
-221
-234
-253
-267
-278
-285
-291
-304
-316
-321
-307
-313
-314
-315
-309
-301
-296
-305
-304
-298
-275
-278
-276
-278
-275
-272
-273
-288
-291
-290
-269
-286
-287
-293
-293
-295
-302
-313
-316
-309
-296
-305
-302
-303
-297
-293
-296
-303
-301
-284
-273
-278
-274
-272
-266
-264
-274
-283
-287
-272
-275
-283
-287
-291
-293
-297
-310
-322
-330
-318
-330
-335
-341
-339
-335
-332
-342
-341
-336
-312
-312
-305
-300
-290
-278
-269
-274
-267
-254
-223
-229
-220
-214
-203
-194
-190
-192
-188
-174
-157
-162
-155
-152
-142
-131
-127
-125
-111
-82
-56
-45
-24
-2
26
54
70
89
115
160
189
212
237
262
288
312
326
340
359
397
405
419
429
444
459
469
467
473
486
515
521
537
550
571
594
612
616
635
661
701
709
729
745
765
783
794
798
806
822
839
831
833
831
833
833
822
807
799
804
801
782
770
759
752
743
726
713
710
727
729
727
730
733
737
739
731
726
725
747
734
730
721
716
707
694
667
646
628
623
592
570
543
522
500
475
437
413
397
397
370
357
344
337
331
320
302
291
288
288
265
253
238
228
218
198
174
159
159
150
129
113
98
88
77
55
36
25
30
23
9
1
-6
-9
-11
-24
-31
-31
-5
-13
-9
-9
-3
3
7
1
1
5
26
19
23
21
26
28
25
8
4
6
19
8
6
4
7
9
6
-1
1
15
32
28
37
46
61
76
80
81
89
113
124
123
127
131
138
143
135
129
129
142
141
133
126
120
116
109
90
79
75
96
82
79
74
74
75
75
66
65
69
91
81
85
83
88
90
87
72
66
67
75
61
54
43
35
24
7
-18
-34
-38
-40
-62
-72
-82
-87
-92
-105
-120
-126
-114
-113
-120
-121
-120
-116
-114
-122
-129
-133
-124
-128
-141
-152
-162
-169
-179
-204
-220
-232
-222
-246
-259
-275
-285
-294
-305
-323
-332
-334
-316
-332
-330
-334
-329
-325
-325
-335
-334
-326
-311
-317
-316
-319
-318
-320
-330
-347
-355
-351
-348
-365
-374
-385
-392
-401
-420
-441
-455
-452
-462
-478
-489
-496
-499
-501
-512
-520
-521
-506
-503
-503
-501
-495
-487
-482
-493
-495
-494
-472
-483
-486
-491
-492
-492
-496
-511
-520
-525
-512
-537
-544
-558
-563
-567
-574
-586
-586
-575
-559
-560
-551
-544
-531
-520
-517
-520
-515
-498
-482
-488
-484
-483
-478
-476
-484
-494
-495
-477
-475
-479
-479
-477
-473
-471
-477
-481
-479
-460
-452
-445
-435
-420
-403
-386
-385
-373
-356
-318
-310
-295
-281
-264
-249
-237
-238
-231
-220
-189
-197
-188
-185
-176
-169
-167
-173
-172
-164
-152
-159
-156
-154
-146
-137
-132
-132
-119
-92
-67
-59
-41
-25
-5
12
20
28
42
74
89
96
106
117
128
136
135
133
136
153
152
151
147
147
149
148
131
126
126
146
141
145
147
156
165
172
164
167
174
201
190
195
193
198
199
195
183
175
176
178
160
152
141
135
128
114
95
88
96
100
89
88
88
94
99
96
95
103
131
142
147
155
163
173
182
181
179
180
199
193
189
182
179
175
168
145
132
124
133
117
109
98
94
91
88
71
69
75
102
95
107
117
134
150
161
165
175
193
213
211
220
225
237
247
248
244
247
264
274
267
269
270
275
279
273
271
277
303
311
315
323
333
345
358
363
370
382
412
415
422
426
435
442
444
432
427
426
440
428
421
408
399
388
372
340
321
308
313
285
272
257
249
240
228
212
204
206
213
200
199
195
196
196
186
170
161
166
163
144
131
118
109
97
72
48
30
29
13
-9
-27
-45
-59
-73
-96
-115
-128
-117
-135
-143
-151
-152
-149
-149
-160
-162
-159
-141
-149
-150
-156
-158
-161
-169
-193
-202
-204
-191
-209
-214
-224
-229
-237
-249
-267
-277
-275
-268
-282
-283
-283
-278
-272
-274
-279
-273
-251
-236
-235
-228
-220
-208
-199
-203
-206
-205
-187
-186
-191
-193
-194
-194
-195
-208
-218
-224
-206
-223
-228
-235
-236
-235
-236
-247
-250
-247
-227
-233
-228
-227
-217
-208
-204
-213
-209
-198
-176
-182
-178
-178
-175
-173
-177
-187
-190
-182
-173
-186
-190
-197
-201
-208
-224
-243
-251
-244
-244
-255
-258
-260
-256
-253
-260
-264
-262
-243
-237
-236
-231
-224
-215
-208
-214
-215
-211
-183
-191
-188
-188
-182
-179
-178
-189
-194
-195
-181
-196
-199
-207
-205
-201
-200
-209
-204
-191
-165
-163
-151
-142
-127
-112
-103
-99
-86
-62
-38
-36
-25
-16
-4
5
4
1
5
24
33
30
32
34
41
45
37
31
32
50
56
56
60
67
76
85
78
80
87
119
116
124
128
136
143
148
141
141
144
162
147
146
138
136
133
124
102
94
92
99
84
79
74
76
79
79
75
83
103
124
124
133
140
151
160
160
156
160
180
185
179
178
177
177
173
158
144
136
142
136
124
115
109
105
99
79
69
65
87
75
77
77
82
87
89
82
84
90
116
106
114
115
124
131
131
120
117
120
126
112
105
95
89
83
71
54
47
53
59
47
48
49
57
67
69
72
82
110
124
130
140
151
164
175
177
181
189
210
218
221
224
229
234
235
221
218
218
242
235
237
238
245
254
260
257
264
278
313
312
330
341
359
376
386
387
394
409
426
422
426
425
428
428
418
400
389
389
385
362
347
331
321
311
290
270
259
267
259
245
236
229
227
223
212
202
198
208
203
194
183
176
169
158
131
116
103
111
91
77
59
45
30
14
-13
-29
-38
-24
-46
-48
-52
-48
-44
-43
-48
-45
-33
-17
-20
-14
-11
-3
0
-6
-20
-27
-23
-22
-40
-50
-62
-70
-81
-104
-127
-142
-140
-154
-174
-187
-198
-204
-209
-219
-228
-231
-217
-224
-230
-239
-247
-257
-273
-306
-331
-353
-358
-390
-416
-443
-462
-477
-490
-509
-511
-503
-471
-476
-464
-455
-440
-425
-414
-407
-388
-357
-316
-292
-252
-209
-155
-97
-42
13
83
174
270
358
464
577
704
838
969
1107
1257
1431
1590
1747
1913
2085
2265
2449
2633
2825
3032
3267
3489
3727
3974
4238
4516
4803
5086
5383
5683
5991
6258
6507
6724
6913
7070
7189
7260
7313
7345
7372
7343
7314
7269
7222
7170
7110
7042
6980
6924
6865
6775
6685
6583
6480
6369
6246
6112
5979
5852
5710
5544
5378
5204
5026
4839
4632
4422
4215
4023
3811
3590
3372
3154
2940
2725
2504
2287
2078
1892
1683
1487
1293
1111
935
761
580
413
256
121
-33
-171
-305
-426
-539
-648
-764
-859
-943
-1004
-1094
-1166
-1237
-1299
-1359
-1420
-1482
-1535
-1573
-1605
-1657
-1697
-1738
-1773
-1807
-1849
-1893
-1928
-1947
-1971
-2008
-2036
-2061
-2080
-2099
-2126
-2148
-2159
-2149
-2151
-2155
-2153
-2148
-2140
-2132
-2132
-2127
-2118
-2085
-2083
-2071
-2063
-2050
-2037
-2028
-2033
-2031
-2025
-2005
-2011
-2008
-2010
-2006
-2002
-2001
-2013
-2012
-2004
-1981
-1986
-1979
-1974
-1962
-1949
-1940
-1936
-1922
-1899
-1872
-1868
-1853
-1842
-1825
-1811
-1806
-1803
-1792
-1766
-1749
-1747
-1739
-1734
-1726
-1721
-1731
-1738
-1739
-1722
-1718
-1721
-1719
-1716
-1710
-1705
-1709
-1707
-1698
-1663
-1661
-1646
-1634
-1615
-1595
-1578
-1571
-1558
-1540
-1507
-1501
-1485
-1474
-1458
-1442
-1433
-1441
-1437
-1427
-1407
-1414
-1411
-1412
-1408
-1404
-1405
-1411
-1407
-1390
-1370
-1370
-1358
-1346
-1328
-1310
-1300
-1293
-1278
-1246
-1226
-1218
-1204
-1190
-1173
-1158
-1155
-1150
-1138
-1112
-1100
-1096
-1090
-1084
-1078
-1075
-1084
-1085
-1081
-1052
-1058
-1050
-1045
-1034
-1021
-1010
-1007
-998
-984
-951
-949
-932
-920
-901
-883
-871
-872
-861
-843
-816
-813
-801
-793
-782
-773
-773
-781
-782
-773
-763
-773
-772
-771
-763
-757
-759
-762
-755
-730
-715
-709
-698
-686
-670
-657
-654
-649
-639
-615
-605
-602
-599
-596
-592
-591
-605
-611
-614
-594
-611
-617
-627
-631
-635
-641
-656
-663
-663
-644
-656
-652
-652
-643
-634
-629
-636
-631
-617
-597
-597
-589
-585
-576
-570
-572
-581
-582
-571
-561
-572
-574
-578
-577
-578
-591
-607
-614
-603
-604
-612
-614
-611
-603
-594
-596
-595
-587
-566
-558
-555
-552
-546
-539
-534
-546
-549
-549
-528
-541
-546
-555
-560
-565
-573
-592
-604
-610
-598
-623
-631
-644
-648
-654
-663
-679
-685
-682
-671
-679
-677
-679
-676
-675
-681
-694
-697
-687
-679
-690
-692
-696
-696
-698
-710
-724
-731
-720
-724
-735
-741
-746
-748
-752
-764
-774
-777
-765
-764
-765
-762
-754
-743
-733
-737
-730
-719
-687
-686
-676
-668
-655
-641
-630
-629
-618
-601
-563
-562
-542
-528
-506
-484
-468
-459
-444
-421
-393
-386
-372
-360
-343
-327
-318
-313
-298
-268
-239
-226
-204
-183
-157
-134
-121
-108
-89
-51
-30
-17
-1
15
33
48
53
57
65
87
93
98
102
112
125
136
132
141
156
191
199
216
231
254
279
303
315
338
365
412
418
441
457
481
502
518
527
541
561
585
586
593
596
602
605
600
590
590
606
620
618
626
634
648
660
663
668
682
715
731
742
757
773
791
806
811
816
825
850
854
860
862
869
875
876
861
855
853
868
858
856
853
856
861
863
852
853
859
886
876
883
884
890
894
893
884
881
884
889
870
859
843
832
819
798
771
753
749
739
713
694
675
658
640
611
585
567
570
557
541
528
516
507
497
478
460
447
454
435
423
407
396
385
370
340
319
302
303
278
260
238
220
202
180
142
117
98
98
65
49
31
20
8
-7
-26
-37
-37
-32
-48
-54
-62
-64
-66
-76
-90
-97
-89
-88
-102
-110
-120
-125
-133
-153
-170
-182
-175
-184
-199
-211
-221
-228
-235
-248
-258
-262
-245
-256
-257
-262
-259
-257
-257
-270
-274
-272
-254
-259
-258
-259
-256
-254
-257
-275
-280
-278
-262
-277
-280
-287
-289
-294
-304
-321
-331
-331
-326
-342
-345
-349
-346
-343
-347
-354
-352
-335
-326
-330
-327
-324
-317
-311
-318
-324
-325
-309
-309
-318
-324
-329
-333
-339
-354
-366
-375
-360
-379
-386
-397
-401
-403
-406
-418
-421
-416
-394
-396
-388
-383
-372
-362
-356
-364
-357
-345
-319
-321
-313
-309
-302
-297
-297
-305
-305
-296
-284
-293
-291
-291
-285
-279
-282
-287
-282
-259
-244
-239
-226
-210
-188
-167
-157
-145
-126
-92
-73
-61
-47
-32
-16
-1
1
8
18
50
46
52
53
59
64
65
56
53
54
72
62
65
62
67
73
76
66
69
83
109
111
123
132
145
157
163
162
170
188
208
205
214
218
226
229
221
209
203
212
210
196
188
184
185
186
175
168
169
187
195
199
208
220
236
250
250
259
273
311
312
322
329
340
350
357
354
356
362
383
371
373
368
369
369
364
348
346
353
368
362
365
367
376
384
388
386
394
412
429
424
429
430
435
437
428
415
410
419
415
401
390
379
370
358
336
314
297
295
280
261
246
235
227
218
195
182
176
194
180
176
170
168
167
162
148
140
135
148
126
118
105
98
90
77
53
39
31
30
7
-8
-26
-37
-49
-64
-85
-94
-88
-81
-94
-96
-99
-96
-95
-105
-115
-118
-102
-101
-108
-113
-117
-120
-126
-143
-159
-169
-165
-174
-186
-198
-208
-216
-227
-254
-270
-281
-268
-287
-294
-302
-303
-303
-305
-318
-321
-319
-296
-312
-309
-312
-306
-301
-302
-312
-314
-309
-299
-309
-312
-317
-319
-322
-331
-347
-354
-349
-346
-363
-371
-381
-385
-390
-404
-417
-422
-408
-409
-417
-419
-419
-417
-417
-425
-432
-433
-420
-422
-427
-432
-434
-436
-441
-463
-474
-480
-466
-482
-490
-500
-507
-515
-526
-547
-558
-563
-545
-564
-562
-565
-558
-550
-546
-547
-541
-527
-510
-512
-506
-502
-492
-484
-485
-491
-489
-474
-462
-470
-469
-468
-462
-457
-461
-462
-455
-429
-419
-412
-400
-386
-367
-347
-334
-321
-302
-265
-246
-225
-207
-185
-164
-146
-145
-134
-119
-87
-84
-76
-73
-67
-62
-62
-75
-78
-75
-53
-69
-67
-70
-66
-63
-64
-72
-72
-62
-46
-48
-39
-32
-18
-5
1
2
10
32
51
52
62
70
83
91
87
82
82
100
97
89
83
78
76
73
63
53
50
65
59
57
55
61
70
78
73
81
94
126
131
142
150
160
169
173
161
162
168
193
180
183
180
181
180
172
157
150
151
158
144
142
139
143
147
144
137
140
158
173
173
184
195
211
224
226
228
236
261
268
269
273
277
282
286
281
277
276
293
283
279
271
270
271
270
257
256
260
281
279
285
289
301
313
324
321
332
351
387
388
403
413
426
437
442
439
442
453
467
458
458
455
454
452
441
426
420
429
434
427
428
429
437
442
435
430
431
450
453
450
450
451
454
454
445
436
430
445
426
416
400
391
382
370
346
329
315
316
292
275
254
240
227
213
185
173
170
182
165
160
154
153
152
145
132
125
129
136
120
113
101
94
84
63
38
21
19
7
-18
-36
-56
-71
-89
-120
-148
-169
-171
-187
-206
-219
-230
-237
-243
-259
-270
-275
-257
-273
-278
-286
-289
-292
-299
-318
-332
-342
-338
-361
-373
-391
-400
-411
-425
-454
-468
-476
-471
-493
-504
-517
-524
-531
-541
-555
-560
-552
-540
-549
-548
-549
-546
-543
-549
-557
-555
-538
-531
-537
-538
-541
-540
-541
-556
-568
-574
-565
-570
-581
-589
-598
-605
-613
-634
-647
-655
-636
-651
-651
-651
-643
-633
-624
-623
-615
-601
-569
-567
-552
-544
-530
-519
-516
-531
-538
-543
-542
-569
-589
-611
-629
-646
-668
-693
-707
-704
-693
-697
-685
-670
-647
-622
-603
-585
-557
-510
-473
-445
-409
-369
-323
-275
-234
-187
-129
-49
24
98
180
271
371
478
580
699
831
996
1135
1293
1453
1625
1801
1980
2157
2347
2550
2778
2984
3216
3454
3711
3978
4252
4524
4818
5131
5461
5776
6098
6412
6718
7003
7254
7467
7653
7811
7931
7994
8034
8045
8038
8011
7960
7896
7835
7786
7722
7648
7580
7511
7441
7363
7268
7168
7067
6974
6861
6731
6589
6436
6271
6092
5887
5684
5478
5291
5066
4846
4619
4392
4159
3920
3668
3422
3181
2959
2705
2471
2235
2011
1794
1578
1361
1161
978
809
629
465
306
161
22
-115
-252
-372
-475
-574
-687
-785
-880
-966
-1050
-1141
-1231
-1311
-1373
-1448
-1528
-1601
-1670
-1733
-1795
-1862
-1926
-1981
-2019
-2067
-2116
-2161
-2198
-2229
-2259
-2300
-2327
-2345
-2338
-2361
-2372
-2385
-2390
-2394
-2400
-2415
-2420
-2418
-2395
-2410
-2406
-2409
-2405
-2403
-2406
-2418
-2423
-2419
-2410
-2420
-2421
-2425
-2423
-2423
-2428
-2438
-2438
-2422
-2407
-2410
-2400
-2390
-2373
-2356
-2349
-2342
-2326
-2290
-2270
-2254
-2233
-2210
-2183
-2159
-2144
-2132
-2115
-2086
-2075
-2066
-2059
-2048
-2035
-2025
-2031
-2023
-2010
-1977
-1973
-1961
-1950
-1935
-1918
-1903
-1899
-1883
-1859
-1814
-1808
-1784
-1766
-1742
-1720
-1704
-1694
-1679
-1656
-1629
-1624
-1611
-1603
-1593
-1586
-1587
-1595
-1594
-1579
-1568
-1574
-1570
-1568
-1561
-1555
-1559
-1560
-1553
-1526
-1515
-1507
-1493
-1476
-1455
-1435
-1423
-1412
-1396
-1364
-1352
-1338
-1327
-1312
-1297
-1286
-1291
-1288
-1282
-1260
-1265
-1264
-1265
-1262
-1257
-1254
-1265
-1262
-1254
-1225
-1232
-1221
-1216
-1203
-1191
-1184
-1182
-1173
-1156
-1137
-1139
-1134
-1133
-1126
-1120
-1123
-1131
-1130
-1115
-1104
-1110
-1107
-1105
-1099
-1093
-1098
-1100
-1093
-1064
-1050
-1040
-1024
-1006
-983
-960
-945
-928
-907
-866
-849
-827
-809
-786
-763
-744
-742
-732
-719
-692
-690
-684
-683
-678
-673
-672
-686
-688
-684
-661
-674
-670
-668
-658
-647
-640
-636
-623
-599
-572
-566
-550
-538
-518
-499
-490
-486
-473
-449
-432
-433
-428
-426
-421
-420
-433
-444
-448
-434
-438
-448
-455
-459
-461
-462
-471
-476
-475
-452
-455
-448
-442
-429
-416
-405
-408
-403
-392
-368
-369
-364
-364
-359
-356
-358
-377
-384
-385
-371
-391
-398
-408
-413
-419
-428
-442
-448
-443
-434
-445
-443
-441
-433
-425
-423
-424
-416
-394
-378
-378
-371
-365
-356
-351
-359
-365
-366
-349
-348
-355
-359
-363
-366
-369
-382
-392
-396
-377
-389
-389
-392
-387
-382
-377
-383
-380
-371
-346
-344
-333
-327
-314
-301
-293
-300
-294
-281
-255
-259
-252
-247
-237
-228
-226
-232
-230
-221
-210
-222
-223
-229
-227
-226
-232
-242
-242
-226
-217
-221
-217
-212
-200
-190
-191
-189
-181
-157
-146
-143
-138
-133
-127
-123
-131
-133
-133
-109
-121
-123
-129
-130
-131
-135
-150
-157
-158
-140
-149
-145
-144
-136
-127
-122
-130
-122
-107
-79
-76
-63
-53
-37
-23
-16
-16
-10
6
24
19
26
30
40
49
48
44
48
68
78
76
82
90
103
117
122
131
148
182
204
220
241
264
290
316
329
349
373
421
431
451
466
485
502
515
518
527
539
567
563
572
573
582
589
590
580
583
595
619
621
632
642
656
669
676
674
680
695
710
703
707
706
709
708
695
678
669
674
667
651
640
630
624
615
594
575
562
562
550
531
515
502
491
480
454
438
425
437
414
401
385
372
360
345
320
302
288
293
262
245
222
205
187
164
130
107
91
82
52
31
8
-9
-25
-47
-74
-89
-90
-87
-101
-102
-102
-93
-84
-85
-87
-80
-55
-41
-35
-24
-12
3
16
19
21
29
49
56
56
57
60
64
65
49
43
41
61
49
47
44
47
51
53
46
49
57
83
73
80
81
90
98
100
92
93
100
111
102
99
92
89
84
71
52
42
45
45
26
17
7
2
-4
-18
-32
-38
-24
-24
-29
-30
-30
-27
-26
-36
-45
-48
-38
-42
-49
-55
-58
-59
-64
-85
-96
-104
-92
-110
-119
-129
-135
-139
-146
-163
-170
-172
-152
-170
-168
-171
-164
-156
-152
-153
-147
-132
-115
-118
-114
-114
-110
-106
-111
-123
-126
-117
-111
-125
-131
-139
-143
-148
-164
-178
-185
-171
-173
-178
-179
-178
-173
-169
-171
-172
-166
-142
-135
-127
-120
-109
-97
-88
-95
-93
-88
-64
-68
-65
-65
-60
-55
-54
-66
-68
-66
-44
-60
-59
-63
-59
-56
-57
-65
-65
-56
-44
-51
-49
-48
-41
-34
-35
-41
-38
-24
-14
-24
-25
-30
-32
-37
-54
-70
-81
-73
-85
-103
-118
-133
-145
-159
-180
-201
-216
-211
-226
-237
-247
-252
-254
-257
-272
-274
-270
-247
-249
-244
-240
-232
-226
-224
-238
-241
-240
-220
-239
-241
-248
-250
-254
-266
-283
-295
-298
-297
-318
-327
-337
-340
-342
-351
-363
-364
-351
-341
-346
-341
-335
-324
-315
-318
-321
-317
-296
-295
-300
-303
-306
-307
-310
-321
-332
-338
-326
-340
-347
-358
-362
-365
-370
-387
-392
-391
-370
-372
-365
-360
-349
-337
-328
-335
-329
-316
-286
-290
-281
-277
-269
-264
-267
-277
-282
-277
-269
-283
-286
-291
-291
-293
-303
-319
-326
-318
-315
-326
-327
-326
-318
-308
-309
-307
-297
-269
-257
-252
-242
-233
-221
-212
-213
-214
-212
-192
-203
-208
-217
-221
-227
-235
-255
-267
-274
-264
-278
-284
-292
-291
-287
-285
-294
-285
-266
-227
-218
-193
-169
-139
-109
-85
-66
-41
-6
31
45
69
89
113
132
141
143
153
177
192
192
199
205
213
220
213
210
213
234
240
242
248
255
266
277
277
282
290
320
315
321
323
331
337
340
331
327
326
340
328
324
314
311
307
298
274
264
262
272
255
248
239
234
230
222
209
207
217
230
223
227
229
236
240
234
224
221
234
238
229
225
222
222
218
201
185
175
181
174
161
151
143
138
132
114
103
98
118
106
106
103
108
114
119
115
118
125
147
141
145
141
144
145
141
123
118
119
130
116
109
100
95
89
78
60
50
53
57
40
35
29
29
28
20
9
8
25
31
27
29
31
36
38
28
19
16
28
28
21
17
13
11
6
-13
-27
-36
-21
-41
-49
-59
-63
-65
-70
-83
-89
-89
-70
-82
-78
-79
-70
-62
-57
-64
-60
-49
-31
-36
-35
-37
-37
-38
-45
-60
-66
-62
-58
-78
-88
-103
-113
-126
-147
-170
-182
-176
-182
-196
-203
-207
-206
-206
-216
-222
-223
-209
-207
-211
-213
-214
-213
-215
-234
-244
-249
-230
-245
-250
-257
-261
-265
-274
-293
-306
-314
-304
-328
-334
-346
-348
-348
-353
-368
-371
-367
-355
-361
-359
-360
-356
-353
-356
-366
-368
-358
-351
-364
-368
-375
-377
-380
-393
-408
-414
-403
-407
-418
-424
-429
-430
-431
-440
-447
-445
-427
-420
-417
-413
-405
-396
-388
-398
-396
-390
-361
-364
-359
-358
-355
-353
-356
-371
-378
-381
-365
-386
-390
-399
-400
-404
-412
-429
-437
-435
-426
-436
-434
-433
-424
-414
-411
-412
-401
-377
-354
-350
-336
-323
-303
-285
-277
-270
-256
-225
-212
-207
-198
-188
-176
-166
-165
-163
-156
-135
-129
-125
-119
-109
-97
-84
-86
-74
-55
-14
-1
22
44
71
97
121
133
154
182
229
237
263
282
307
329
346
355
370
393
419
424
439
449
463
473
476
473
479
499
518
520
533
546
566
584
593
601
616
648
663
670
680
690
701
711
712
712
716
734
732
729
723
720
717
710
687
674
664
674
657
647
636
631
627
621
604
599
602
627
614
618
617
623
627
626
618
615
620
629
616
612
605
602
597
583
562
549
549
544
523
512
500
494
487
470
455
448
461
458
452
451
453
459
464
461
457
458
474
467
462
454
450
446
438
415
402
392
399
379
366
350
340
330
318
292
281
278
295
276
275
270
271
271
267
259
260
269
282
273
272
268
269
266
255
237
228
233
233
218
210
201
196
187
166
146
133
140
129
115
107
101
99
96
86
77
75
93
84
82
79
82
86
86
73
67
65
77
64
56
44
37
31
22
-1
-10
-13
0
-21
-30
-43
-52
-63
-78
-99
-113
-116
-115
-136
-146
-158
-165
-171
-183
-199
-206
-198
-195
-206
-210
-214
-214
-217
-233
-247
-255
-244
-249
-261
-270
-278
-285
-294
-312
-329
-341
-331
-351
-360
-370
-373
-375
-377
-390
-393
-391
-373
-379
-377
-379
-374
-368
-364
-376
-375
-367
-346
-356
-355
-358
-356
-357
-364
-377
-384
-382
-378
-398
-407
-420
-427
-435
-450
-469
-477
-469
-468
-478
-481
-481
-477
-473
-479
-481
-474
-447
-434
-425
-413
-399
-384
-372
-371
-368
-362
-333
-339
-335
-335
-331
-328
-329
-342
-348
-350
-336
-350
-355
-365
-371
-378
-393
-423
-441
-453
-452
-478
-492
-505
-509
-509
-510
-511
-499
-473
-443
-433
-412
-394
-371
-350
-339
-332
-315
-282
-256
-240
-214
-182
-142
-96
-55
-5
60
149
235
324
425
537
660
791
920
1062
1216
1398
1549
1715
1879
2053
2231
2412
2589
2780
2985
3214
3423
3654
3889
4139
4400
4671
4941
5230
5527
5831
6100
6359
6591
6798
6973
7109
7208
7286
7347
7387
7386
7377
7353
7325
7289
7238
7179
7127
7087
7029
6951
6869
6779
6685
6582
6461
6336
6208
6087
5946
5792
5632
5469
5303
5129
4938
4751
4568
4407
4209
4020
3826
3636
3445
3250
3045
2847
2654
2479
2274
2086
1895
1715
1538
1361
1176
1008
852
709
552
409
271
147
27
-92
-210
-314
-400
-480
-575
-653
-727
-791
-853
-922
-991
-1051
-1092
-1144
-1206
-1261
-1313
-1362
-1410
-1466
-1521
-1570
-1605
-1652
-1704
-1753
-1797
-1837
-1875
-1925
-1962
-1990
-1992
-2023
-2040
-2056
-2065
-2070
-2074
-2086
-2087
-2083
-2058
-2068
-2063
-2065
-2061
-2060
-2066
-2083
-2091
-2093
-2088
-2104
-2113
-2124
-2132
-2140
-2155
-2176
-2186
-2183
-2179
-2193
-2194
-2196
-2190
-2183
-2185
-2188
-2180
-2154
-2142
-2136
-2125
-2113
-2098
-2085
-2082
-2080
-2074
-2056
-2052
-2054
-2056
-2054
-2050
-2048
-2062
-2065
-2063
-2039
-2046
-2043
-2043
-2037
-2030
-2023
-2025
-2018
-2003
-1968
-1969
-1951
-1938
-1916
-1895
-1879
-1872
-1856
-1832
-1804
-1796
-1782
-1772
-1759
-1748
-1745
-1748
-1742
-1722
-1703
-1703
-1694
-1687
-1677
-1668
-1670
-1672
-1666
-1641
-1631
-1626
-1614
-1599
-1580
-1561
-1549
-1536
-1515
-1478
-1458
-1440
-1421
-1399
-1375
-1354
-1351
-1338
-1323
-1289
-1284
-1273
-1265
-1253
-1241
-1232
-1237
-1231
-1221
-1191
-1202
-1195
-1194
-1185
-1178
-1174
-1176
-1170
-1155
-1135
-1134
-1122
-1112
-1098
-1084
-1079
-1080
-1070
-1047
-1028
-1028
-1019
-1011
-1000
-992
-994
-998
-994
-971
-967
-969
-968
-967
-965
-965
-974
-982
-985
-970
-973
-971
-968
-959
-949
-940
-947
-943
-933
-904
-901
-891
-883
-871
-859
-851
-856
-850
-840
-809
-817
-808
-804
-793
-783
-779
-781
-776
-765
-752
-760
-759
-761
-757
-753
-756
-763
-760
-742
-727
-728
-720
-712
-700
-689
-690
-690
-683
-657
-649
-647
-640
-633
-624
-617
-619
-621
-619
-600
-605
-606
-611
-611
-610
-612
-629
-637
-638
-622
-629
-628
-628
-619
-608
-599
-604
-594
-578
-542
-542
-525
-512
-494
-476
-464
-458
-447
-428
-406
-407
-399
-396
-388
-382
-385
-393
-392
-377
-368
-374
-373
-371
-364
-357
-361
-361
-352
-323
-311
-305
-294
-283
-269
-258
-256
-251
-242
-213
-213
-205
-202
-194
-187
-183
-194
-197
-195
-177
-183
-180
-180
-173
-165
-160
-167
-158
-140
-103
-98
-78
-59
-34
-11
6
17
34
60
87
91
105
114
128
139
140
136
138
154
160
150
147
144
144
141
128
118
117
135
138
136
138
143
151
160
161
165
175
206
205
213
217
226
233
237
229
225
225
240
229
226
218
215
211
201
177
166
164
177
162
160
156
159
161
159
151
152
165
181
178
185
191
202
212
213
209
213
232
241
237
239
242
250
256
251
250
254
275
280
279
281
284
291
299
297
300
309
343
342
354
363
380
398
414
422
437
459
497
508
530
545
568
589
605
608
625
649
685
695
713
728
745
759
764
763
769
785
802
798
804
807
815
820
815
807
807
822
827
819
817
815
817
815
800
787
778
784
776
760
747
734
723
708
678
654
632
633
595
570
540
517
494
470
437
411
391
388
354
334
309
291
272
249
215
194
180
176
148
129
106
87
68
43
12
-11
-22
-33
-64
-85
-109
-128
-148
-178
-209
-230
-232
-245
-266
-280
-290
-294
-299
-314
-325
-330
-321
-324
-333
-339
-343
-346
-350
-370
-381
-388
-371
-388
-395
-404
-409
-415
-424
-442
-453
-460
-448
-469
-474
-483
-482
-479
-478
-487
-482
-468
-446
-444
-433
-425
-413
-403
-400
-403
-399
-382
-367
-373
-369
-369
-365
-364
-373
-385
-390
-377
-378
-388
-394
-398
-398
-400
-410
-417
-416
-399
-394
-392
-387
-378
-366
-357
-362
-357
-348
-315
-316
-307
-301
-291
-283
-279
-286
-286
-283
-262
-279
-280
-286
-285
-285
-290
-303
-306
-299
-286
-290
-284
-279
-266
-252
-243
-239
-224
-197
-172
-166
-151
-139
-123
-109
-106
-105
-97
-72
-64
-64
-61
-57
-51
-48
-55
-61
-62
-48
-48
-51
-53
-50
-45
-42
-54
-53
-46
-16
-15
-5
3
14
25
32
27
30
38
65
52
57
54
58
58
52
37
29
28
31
12
2
-10
-18
-25
-37
-53
-58
-48
-39
-47
-45
-43
-35
-28
-32
-36
-34
-15
-14
-19
-20
-21
-20
-20
-29
-37
-40
-28
-34
-40
-48
-53
-57
-65
-90
-104
-113
-102
-116
-123
-131
-134
