-4381
-4209
-4026
-3822
-3606
-3389
-3170
-2954
-2743
-2535
-2336
-2148
-1971
-1780
-1600
-1425
-1256
-1097
-949
-809
-683
-572
-472
-365
-275
-191
-111
-37
33
105
166
219
266
320
362
397
427
452
473
492
501
501
500
505
499
492
485
474
465
456
439
415
398
382
358
335
309
281
258
232
201
166
139
116
90
69
49
30
19
7
-8
-28
-27
-31
-34
-32
-29
-24
-13
-4
1
4
24
35
47
61
74
85
101
109
111
113
126
132
141
150
158
169
183
191
194
201
217
224
235
247
258
272
288
299
303
318
336
349
365
382
399
422
444
463
478
500
524
543
565
587
607
635
659
677
687
715
735
752
770
786
801
819
831
838
840
859
867
875
885
894
903
915
921
923
925
937
943
950
958
964
971
980
981
975
972
976
972
968
963
956
953
949
939
921
914
910
900
894
890
886
886
885
880
870
869
869
866
864
864
863
870
871
866
856
861
859
856
854
851
848
849
845
837
824
830
825
822
820
819
818
820
817
810
804
808
807
807
809
811
814
821
821
815
815
823
824
827
829
829
833
835
831
819
818
817
811
807
803
798
797
795
788
776
773
769
763
760
756
752
755
753
745
732
734
729
723
721
718
714
716
712
702
686
689
679
671
663
652
642
636
624
609
594
589
577
567
558
548
541
537
527
512
502
502
495
491
488
485
485
486
479
465
462
461
456
453
450
446
444
442
435
421
419
414
408
403
399
393
395
391
381
366
365
359
353
348
344
341
345
342
335
323
329
323
318
315
310
306
304
297
285
274
272
263
254
246
236
230
227
217
203
195
194
185
179
173
165
161
158
149
133
130
127
119
114
109
103
97
90
76
55
44
26
4
-20
-49
-83
-115
-158
-209
-268
-317
-373
-429
-483
-537
-588
-631
-679
-731
-784
-817
-859
-898
-933
-967
-997
-1023
-1052
-1085
-1115
-1134
-1161
-1185
-1207
-1229
-1246
-1260
-1280
-1305
-1323
-1333
-1350
-1363
-1375
-1387
-1394
-1401
-1413
-1432
-1438
-1443
-1453
-1460
-1468
-1476
-1480
-1484
-1493
-1507
-1505
-1508
-1513
-1515
-1517
-1522
-1520
-1523
-1530
-1540
-1538
-1541
-1544
-1545
-1547
-1550
-1546
-1551
-1561
-1573
-1568
-1571
-1573
-1572
-1571
-1567
-1560
-1558
-1560
-1559
-1547
-1540
-1530
-1518
-1506
-1490
-1470
-1456
-1449
-1433
-1411
-1397
-1381
-1364
-1348
-1327
-1308
-1295
-1289
-1273
-1257
-1245
-1231
-1217
-1204
-1187
-1170
-1158
-1152
-1129
-1112
-1096
-1078
-1061
-1044
-1021
-1003
-988
-976
-952
-934
-916
-897
-880
-863
-840
-826
-818
-811
-788
-775
-760
-744
-729
-712
-693
-681
-673
-662
-640
-626
-609
-591
-573
-552
-530
-515
-505
-487
-465
-449
-430
-410
-391
-366
-342
-325
-312
-290
-267
-248
-227
-206
-185
-161
-139
-121
-110
-81
-60
-40
-17
5
26
53
76
95
112
143
168
194
222
249
277
311
337
359
379
413
440
468
497
524
552
582
605
621
641
669
689
710
732
752
775
798
815
825
843
866
883
902
922
941
966
990
1008
1021
1042
1064
1082
1102
1121
1139
1163
1182
1195
1200
1222
1234
1243
1253
1260
1264
1273
1276
1275
1269
1277
1277
1278
1280
1282
1283
1291
1292
1289
1287
1297
1300
1304
1311
1317
1324
1334
1338
1336
1337
1347
1349
1352
1355
1356
1358
1361
1356
1345
1343
1345
1341
1341
1341
1341
1347
1352
1352
1348
1354
1363
1371
1383
1397
1411
1433
1449
1461
1465
1487
1499
1510
1521
1531
1540
1552
1559
1560
1556
1567
1567
1567
1568
1567
1564
1566
1560
1546
1531
1523
1504
1482
1458
1430
1401
1373
1338
1295
1256
1224
1184
1146
1107
1068
1032
995
952
903
864
829
789
750
712
674
640
604
564
519
484
450
415
383
352
321
298
271
238
201
182
158
134
113
92
71
56
37
13
-15
-25
-47
-65
-82
-98
-114
-124
-139
-159
-178
-187
-203
-217
-230
-242
-251
-256
-266
-281
-292
-293
-303
-311
-318
-327
-333
-339
-351
-369
-377
-383
-395
-404
-414
-425
-431
-438
-449
-464
-470
-473
-479
-482
-484
-486
-481
-481
-487
-498
-493
-493
-494
-491
-489
-485
-476
-472
-471
-475
-459
-453
-444
-433
-420
-405
-386
-371
-362
-350
-329
-314
-299
-282
-266
-247
-226
-211
-203
-190
-169
-156
-141
-125
-109
-90
-70
-57
-49
-30
-10
6
24
43
62
84
106
124
138
162
186
206
228
248
265
289
305
316
320
339
351
360
370
378
385
396
400
399
394
408
410
413
419
424
431
441
445
446
448
460
466
474
483
490
499
509
511
506
506
512
511
509
507
503
503
503
497
483
482
482
479
478
479
479
484
488
488
483
490
494
495
498
499
500
507
507
503
494
499
498
496
496
494
492
495
491
482
468
474
469
465
463
459
457
457
453
444
438
441
438
437
438
439
442
448
447
440
439
445
445
447
450
453
462
470
472
468
474
481
484
488
492
497
504
510
511
506
514
515
513
512
510
507
511
509
503
496
502
504
507
512
518
524
537
543
545
545
562
570
580
592
603
615
628
636
639
644
659
666
674
683
689
696
703
702
694
689
689
680
671
662
650
642
631
612
585
567
548
523
499
475
450
429
406
378
342
319
289
257
226
193
159
130
96
60
20
-5
-35
-63
-88
-112
-135
-149
-170
-194
-219
-228
-244
-260
-274
-289
-303
-314
-329
-349
-365
-372
-387
-401
-413
-427
-439
-450
-466
-488
-501
-508
-519
-527
-533
-539
-539
-539
-545
-555
-554
-551
-551
-548
-545
-541
-533
-528
-528
-537
-531
-533
-538
-540
-543
-547
-546
-552
-562
-578
-581
-590
-599
-608
-616
-624
-623
-629
-641
-653
-651
-657
-661
-664
-668
-669
-667
-670
-678
-683
-680
-684
-688
-691
-695
-696
-695
-701
-713
-715
-712
-714
-714
-714
-715
-710
-707
-709
-716
-712
-706
-703
-698
-693
-689
-681
-676
-677
-686
-679
-679
-681
-681
-682
-683
-679
-679
-682
-688
-678
-676
-673
-670
-668
-669
-666
-675
-694
-719
-739
-772
-810
-850
-893
-935
-974
-1019
-1069
-1117
-1156
-1204
-1252
-1302
-1355
-1410
-1467
-1535
-1614
-1693
-1775
-1871
-1972
-2081
-2200
-2321
-2449
-2589
-2739
-2882
-3023
-3165
-3303
-3440
-3574
-3702
-3832
-3965
-4102
-4213
-4322
-4422
-4511
-4589
-4657
-4710
-4758
-4804
-4848
-4872
-4896
-4908
-4903
-4880
-4833
-4755
-4658
-4540
-4400
-4229
-4050
-3859
-3659
-3453
-3243
-3030
-2828
-2640
-2456
-2269
-2095
-1924
-1756
-1594
-1433
-1280
-1142
-1019
-895
-773
-660
-549
-439
-332
-220
-110
-4
100
212
327
437
547
654
754
853
940
1016
1078
1154
1217
1274
1327
1374
1415
1455
1486
1509
1524
1554
1570
1585
1598
1609
1616
1626
1626
1619
1611
1611
1604
1598
1592
1585
1582
1581
1576
1566
1560
1563
1560
1560
1562
1565
1572
1581
1585
1582
1590
1601
1606
1613
1621
1627
1636
1645
1649
1648
1654
1660
1662
1665
1667
1668
1676
1677
1673
1664
1672
1672
1672
1672
1671
1670
1673
1672
1665
1654
1661
1657
1654
1651
1648
1644
1643
1635
1620
1605
1598
1584
1570
1557
1541
1526
1512
1490
1461
1435
1416
1387
1361
1334
1304
1278
1250
1213
1167
1129
1089
1042
997
951
904
860
816
766
711
666
620
573
529
485
442
407
369
327
282
255
224
194
167
143
120
105
87
66
42
39
24
10
-1
-14
-26
-34
-48
-66
-82
-89
-102
-114
-124
-136
-145
-152
-164
-182
-194
-196
-204
-209
-212
-214
-211
-208
-211
-220
-216
-210
-209
-205
-200
-196
-188
-183
-182
-188
-185
-184
-186
-188
-190
-192
-188
-189
-196
-208
-205
-208
-212
-214
-215
-214
-208
-206
-209
-215
-200
-197
-193
-187
-182
-176
-169
-167
-170
-172
-166
-168
-170
-172
-175
-176
-176
-183
-196
-202
-202
-209
-214
-217
-222
-223
-223
-230
-242
-241
-239
-240
-237
-232
-227
-219
-212
-211
-215
-209
-207
-207
-206
-207
-210
-207
-209
-217
-229
-228
-233
-238
-241
-242
-242
-234
-231
-232
-237
-223
-218
-212
-203
-194
-183
-167
-155
-148
-139
-122
-113
-102
-92
-84
-73
-62
-59
-63
-61
-55
-56
-55
-54
-56
-53
-51
-54
-63
-59
-52
-50
-44
-38
-32
-23
-14
-10
-13
-3
3
6
10
14
16
24
26
22
14
18
16
14
14
14
14
22
22
17
9
18
17
19
24
28
36
47
53
54
59
73
79
86
94
100
108
117
117
110
109
111
106
100
95
87
83
78
66
49
43
38
29
23
17
11
8
4
-4
-19
-18
-22
-27
-30
-33
-37
-36
-40
-49
-62
-63
-69
-75
-80
-86
-92
-92
-101
-115
-132
-134
-146
-156
-164
-174
-183
-190
-203
-221
-238
-245
-261
-275
-287
-300
-309
-315
-327
-343
-351
-352
-358
-362
-365
-369
-367
-366
-370
-380
-379
-377
-381
-384
-389
-395
-398
-404
-414
-432
-433
-442
-451
-458
-466
-474
-477
-484
-496
-511
-512
-521
-528
-534
-540
-547
-547
-556
-571
-588
-592
-604
-614
-625
-637
-648
-657
-672
-693
-711
-720
-737
-751
-764
-778
-788
-797
-812
-833
-846
-855
-870
-883
-894
-907
-914
-922
-935
-953
-961
-966
-975
-982
-988
-994
-993
-994
-999
-1010
-1002
-1002
-1002
-1001
-1000
-999
-992
-989
-989
-991
-976
-968
-959
-947
-934
-920
-899
-884
-874
-863
-838
-818
-795
-769
-741
-710
-676
-648
-625
-597
-559
-529
-496
-461
-428
-393
-359
-331
-311
-282
-250
-224
-196
-167
-138
-105
-72
-44
-21
10
43
73
105
137
169
207
241
269
291
330
361
390
421
451
481
514
543
566
584
617
639
660
680
698
713
734
746
753
760
777
787
798
810
819
830
843
849
849
852
865
869
876
883
888
895
903
903
897
899
904
903
905
908
911
918
924
924
919
921
925
926
929
933
936
946
952
953
949
962
969
974
982
989
997
1010
1020
1026
1027
1044
1049
1055
1062
1069
1074
1084
1087
1084
1083
1091
1092
1093
1095
1095
1096
1099
1094
1084
1078
1080
1076
1074
1073
1072
1075
1078
1075
1066
1068
1073
1072
1074
1074
1073
1075
1074
1067
1054
1049
1044
1034
1026
1017
1007
1003
992
975
952
946
933
919
908
897
886
882
874
862
846
847
838
832
827
821
816
813
805
791
779
776
766
757
748
739
731
726
715
699
687
683
672
664
656
649
645
641
632
616
612
610
605
602
600
597
598
600
596
589
591
593
593
595
597
598
606
606
599
587
589
584
577
572
566
560
558
551
539
522
522
511
501
493
484
477
475
467
456
446
446
439
434
430
425
423
423
417
406
398
399
391
385
379
371
367
363
354
338
335
334
329
326
324
322
324
326
325
320
327
333
338
345
351
357
370
377
379
377
389
395
402
410
418
426
439
446
447
445
460
465
471
479
487
496
507
514
515
518
531
536
543
551
559
569
582
586
583
585
593
593
592
591
587
587
585
575
557
549
539
523
505
486
463
442
417
387
349
321
289
253
218
182
143
112
75
35
-7
-34
-65
-94
-120
-145
-168
-183
-204
-229
-256
-265
-282
-296
-308
-319
-328
-334
-345
-361
-375
-378
-389
-396
-401
-406
-407
-405
-409
-419
-421
-417
-418
-416
-413
-409
-400
-389
-383
-383
-371
-357
-348
-338
-328
-319
-307
-296
-291
-293
-281
-274
-270
-263
-257
-251
-240
-233
-231
-233
-223
-218
-213
-208
-202
-196
-182
-176
-174
-175
-158
-150
-141
-129
-119
-108
-95
-89
-88
-86
-76
-76
-75
-73
-73
-70
-65
-66
-74
-74
-68
-67
-62
-56
-50
-39
-30
-27
-31
-24
-17
-13
-9
-4
1
9
17
19
15
26
30
33
37
40
41
47
48
45
38
42
40
38
36
32
28
31
26
17
5
10
6
4
3
2
1
4
1
-5
-8
0
0
3
8
11
17
23
22
14
12
14
10
7
4
0
0
-2
-10
-24
-28
-30
-36
-39
-42
-43
-38
-36
-39
-49
-41
-41
-41
-39
-37
-36
-30
-28
-32
-39
-35
-40
-45
-50
-56
-63
-63
-71
-83
-96
-96
-104
-110
-117
-124
-128
-130
-137
-149
-158
-157
-163
-168
-170
-174
-175
-174
-179
-190
-192
-189
-191
-190
-189
-189
-184
-181
-184
-193
-193
-190
-192
-190
-188
-187
-180
-176
-178
-187
-177
-175
-174
-170
-167
-163
-155
-150
-150
-155
-144
-143
-140
-136
-132
-129
-120
-118
-123
-128
-122
-124
-127
-130
-134
-136
-134
-139
-148
-153
-148
-150
-149
-147
-145
-140
-133
-131
-135
-129
-119
-114
-107
-99
-91
-79
-68
-63
-62
-52
-39
-30
-18
-5
7
25
38
46
47
66
78
90
105
119
134
154
170
183
194
221
239
260
284
307
332
364
390
412
436
470
497
524
550
574
598
624
642
653
664
681
687
693
697
697
698
698
691
676
670
666
656
647
638
627
619
610
596
576
565
555
541
529
516
501
491
476
453
423
409
388
364
342
318
293
272
247
216
180
162
133
107
84
62
42
27
7
-17
-39
-50
-66
-78
-88
-97
-101
-100
-104
-113
-117
-112
-116
-117
-119
-120
-118
-115
-118
-128
-126
-122
-123
-121
-118
-116
-108
-99
-94
-93
-83
-72
-63
-53
-42
-33
-18
-10
-8
-15
-7
-7
-9
-12
-17
-22
-23
-29
-41
-59
-60
-76
-92
-111
-135
-163
-193
-235
-290
-349
-404
-470
-536
-601
-667
-731
-793
-862
-939
-1014
-1083
-1163
-1244
-1327
-1417
-1508
-1606
-1717
-1841
-1960
-2086
-2224
-2368
-2518
-2674
-2832
-2994
-3160
-3330
-3489
-3646
-3802
-3954
-4103
-4247
-4377
-4507
-4631
-4750
-4842
-4930
-5008
-5075
-5133
-5184
-5224
-5266
-5307
-5343
-5347
-5345
-5319
-5267
-5190
-5086
-4955
-4807
-4644
-4464
-4262
-4059
-3846
-3630
-3417
-3207
-3000
-2806
-2623
-2440
-2252
-2073
-1895
-1722
-1558
-1397
-1246
-1109
-986
-857
-733
-617
-502
-388
-275
-159
-43
70
178
297
409
514
613
703
783
863
929
982
1023
1070
1105
1133
1157
1174
1187
1202
1208
1207
1200
1211
1207
1202
1194
1184
1172
1162
1146
1125
1106
1096
1078
1064
1051
1040
1032
1027
1018
1004
997
998
995
994
995
996
1002
1009
1009
1004
1010
1017
1021
1027
1033
1038
1046
1052
1053
1047
1053
1055
1054
1054
1054
1052
1057
1055
1049
1039
1039
1034
1028
1023
1018
1014
1016
1010
999
984
987
979
972
966
958
951
947
938
926
917
917
911
907
905
903
904
907
905
898
898
906
907
911
916
920
928
934
934
928
933
938
939
942
945
946
949
948
942
926
924
914
903
892
879
864
854
838
817
792
781
764
748
734
721
708
703
691
673
652
648
633
618
603
587
572
560
543
521
502
493
478
465
454
442
435
432
423
409
403
406
402
401
401
398
400
399
392
379
375
372
364
358
350
342
336
327
313
292
288
278
268
261
255
249
247
240
229
214
213
206
200
197
193
190
195
191
182
170
173
167
163
160
157
156
158
155
147
141
145
141
138
136
133
134
136
133
125
125
130
129
130
131
131
136
141
140
135
141
148
152
158
165
170
181
188
190
184
195
198
199
202
203
203
206
204
197
186
189
184
179
177
173
169
172
166
155
143
143
136
131
127
123
121
121
115
102
91
89
77
67
57
44
35
27
12
-9
-23
-33
-49
-63
-76
-89
-97
-105
-117
-133
-139
-143
-149
-152
-155
-157
-153
-152
-156
-168
-160
-162
-164
-165
-167
-170
-170
-175
-184
-198
-197
-205
-212
-218
-225
-233
-235
-245
-260
-274
-278
-287
-295
-301
-307
-310
-310
-315
-326
-334
-331
-337
-341
-345
-350
-352
-354
-364
-382
-391
-398
-412
-423
-434
-447
-454
-462
-475
-494
-504
-512
-523
-533
-542
-552
-553
-559
-570
-586
-583
-587
-591
-593
-595
-598
-596
-599
-606
-616
-610
-614
-617
-618
-621
-625
-625
-631
-642
-653
-654
-660
-666
-670
-674
-676
-674
-678
-687
-693
-688
-690
-689
-685
-680
-671
-660
-656
-658
-648
-636
-629
-619
-608
-598
-585
-572
-565
-563
-554
-545
-541
-536
-531
-528
-518
-514
-517
-526
-518
-521
-526
-532
-540
-550
-557
-570
-586
-607
-610
-624
-637
-646
-656
-665
-669
-679
-693
-705
-707
-715
-723
-729
-737
-743
-747
-758
-774
-785
-787
-795
-801
-805
-809
-810
-810
-817
-831
-834
-836
-842
-845
-848
-851
-850
-851
-856
-866
-868
-870
-875
-877
-880
-884
-880
-882
-889
-902
-899
-901
-904
-905
-905
-903
-895
-890
-887
-887
-866
-854
-839
-821
-801
-778
-748
-721
-697
-671
-634
-603
-570
-536
-504
-469
-431
-400
-375
-345
-307
-277
-245
-213
-182
-147
-114
-86
-64
-30
7
39
75
110
145
183
219
251
277
312
345
376
408
440
470
507
537
560
576
606
629
652
674
695
716
743
762
775
782
808
821
836
852
867
882
901
914
923
932
951
962
974
988
1000
1014
1032
1045
1052
1066
1086
1097
1111
1125
1137
1153
1168
1177
1179
1191
1204
1212
1223
1233
1242
1252
1260
1262
1258
1265
1269
1271
1275
1279
1282
1292
1297
1297
1293
1302
1307
1311
1318
1323
1329
1339
1342
1338
1328
1336
1331
1327
1323
1318
1313
1311
1304
1290
1278
1274
1262
1251
1241
1230
1224
1220
1210
1194
1185
1183
1174
1168
1162
1156
1155
1154
1148
1136
1136
1136
1133
1131
1129
1125
1125
1124
1117
1104
1105
1100
1093
1087
1079
1070
1066
1057
1045
1028
1025
1018
1011
1007
1003
1000
1005
1003
996
987
994
993
992
993
992
992
995
992
984
977
980
975
970
967
962
959
957
949
933
922
917
905
894
882
870
863
854
839
818
808
800
785
772
757
739
723
703
675
639
616
585
551
517
481
442
406
363
315
262
220
171
119
67
14
-39
-85
-140
-198
-256
-299
-351
-402
-454
-509
-566
-625
-693
-772
-855
-933
-1023
-1114
-1206
-1304
-1403
-1507
-1623
-1750
-1873
-1995
-2127
-2263
-2404
-2552
-2701
-2859
-3028
-3210
-3389
-3572
-3765
-3961
-4159
-4360
-4556
-4751
-4944
-5134
-5297
-5452
-5594
-5718
-5826
-5918
-5986
-6037
-6072
-6088
-6071
-6042
-5998
-5939
-5872
-5797
-5708
-5623
-5538
-5449
-5340
-5230
-5106
-4961
-4796
-4608
-4399
-4179
-3951
-3711
-3455
-3205
-2952
-2700
-2451
-2203
-1960
-1735
-1529
-1328
-1133
-952
-777
-607
-445
-285
-135
2
125
250
365
466
558
638
707
770
821
860
884
921
944
961
974
980
981
983
976
962
942
933
914
896
878
860
845
838
826
813
803
808
809
814
822
831
846
865
881
893
912
942
965
993
1022
1050
1081
1113
1139
1157
1185
1216
1242
1269
1297
1322
1352
1378
1397
1409
1429
1449
1464
1479
1493
1504
1520
1530
1533
1527
1538
1540
1540
1540
1540
1538
1541
1540
1534
1524
1529
1526
1525
1525
1525
1525
1530
1530
1526
1521
1527
1526
1525
1525
1523
1522
1524
1518
1505
1495
1494
1484
1476
1467
1456
1448
1440
1427
1407
1398
1393
1383
1377
1371
1366
1366
1366
1360
1349
1347
1346
1343
1341
1340
1337
1341
1338
1329
1312
1312
1305
1296
1289
1281
1272
1268
1260
1247
1230
1230
1220
1212
1206
1200
1195
1196
1192
1183
1176
1180
1178
1177
1177
1176
1178
1183
1182
1175
1172
1177
1174
1172
1168
1162
1158
1153
1142
1122
1111
1101
1084
1067
1047
1024
1004
980
951
917
892
868
842
819
796
773
759
739
714
684
672
653
635
619
603
587
575
558
535
506
494
470
447
425
401
377
357
331
301
271
249
220
192
166
138
113
91
63
29
1
-20
-48
-72
-96
-119
-138
-156
-180
-209
-228
-245
-267
-288
-308
-329
-346
-365
-388
-415
-432
-449
-468
-485
-501
-520
-531
-548
-569
-595
-603
-616
-628
-636
-644
-650
-650
-656
-666
-681
-676
-683
-689
-693
-697
-702
-703
-711
-725
-739
-744
-757
-767
-777
-787
-794
-798
-808
-824
-834
-835
-844
-851
-857
-862
-862
-861
-865
-876
-874
-871
-872
-871
-870
-870
-866
-862
-863
-870
-866
-866
-868
-871
-874
-880
-879
-883
-892
-905
-904
-907
-910
-911
-911
-911
-906
-906
-910
-917
-905
-903
-900
-895
-891
-886
-878
-876
-880
-882
-875
-875
-874
-871
-869
-865
-858
-858
-864
-864
-857
-857
-854
-851
-848
-840
-833
-832
-838
-831
-824
-822
-818
-812
-807
-798
-789
-784
-785
-773
-765
-759
-752
-747
-744
-735
-732
-735
-742
-737
-739
-742
-744
-748
-752
-749
-754
-764
-776
-770
-774
-776
-776
-776
-775
-771
-771
-775
-776
-767
-765
-759
-752
-745
-735
-723
-717
-717
-709
-694
-685
-673
-661
-649
-633
-618
-609
-607
-593
-578
-568
-555
-541
-528
-511
-495
-484
-479
-460
-445
-432
-416
-401
-386
-363
-345
-331
-320
-298
-281
-266
-249
-234
-219
-198
-185
-178
-174
-153
-141
-129
-116
-104
-91
-76
-66
-61
-52
-34
-23
-10
4
16
31
48
58
61
70
85
94
104
115
124
138
149
154
152
159
167
170
175
179
182
188
190
186
173
175
168
159
150
141
130
125
116
103
88
86
78
71
67
63
61
68
67
61
53
60
59
58
58
57
58
62
62
57
57
67
70
75
81
87
96
106
112
111
119
131
138
149
160
171
188
204
214
220
236
255
269
286
304
321
343
361
375
381
404
418
430
445
459
471
487
496
501
501
515
520
527
535
543
551
566
575
579
583
599
608
619
632
643
656
673
683
688
695
711
717
723
730
734
740
747
748
741
743
749
749
752
755
756
763
768
768
764
769
777
781
787
792
797
807
813
812
805
815
816
817
819
819
818
821
818
810
798
798
790
783
778
771
763
763
754
742
729
728
721
716
713
711
712
717
717
713
712
721
721
723
725
726
730
735
733
726
727
731
729
729
729
728
732
735
732
726
728
732
733
737
740
742
750
754
753
746
758
763
768
777
785
793
805
812
815
814
829
833
838
843
847
850
858
858
852
846
849
846
844
842
839
840
844
842
835
830
834
831
831
833
835
841
848
850
846
852
859
861
863
866
868
874
879
878
874
877
881
882
883
885
884
891
891
887
877
885
886
885
885
884
884
887
886
880
870
878
875
873
872
869
865
864
857
844
832
829
820
812
806
798
793
790
781
767
756
753
742
734
727
719
715
711
702
687
683
681
675
672
669
667
670
672
671
663
663
663
661
659
656
652
655
651
642
626
626
618
608
598
585
572
563
548
530
507
504
490
478
469
460
453
450
443
432
424
427
423
421
421
420
421
425
422
413
409
413
409
407
406
403
403
401
392
375
368
362
350
340
331
320
313
305
293
276
268
259
247
237
227
216
212
203
189
170
167
157
146
136
126
116
111
101
87
69
70
59
50
43
35
27
22
11
-4
-18
-22
-33
-42
-50
-59
-66
-70
-80
-94
-103
-102
-109
-113
-116
-120
-121
-122
-129
-144
-148
-150
-156
-159
-161
-164
-164
-164
-170
-182
-182
-186
-191
-194
-196
-199
-194
-195
-200
-210
-207
-209
-211
-212
-213
-215
-210
-213
-221
-234
-228
-235
-240
-245
-250
-253
-254
-260
-270
-277
-275
-280
-282
-283
-283
-281
-276
-277
-282
-279
-269
-265
-259
-253
-248
-239
-231
-229
-234
-226
-218
-213
-207
-200
-195
-188
-182
-181
-187
-181
-178
-177
-173
-170
-167
-157
-153
-153
-158
-150
-147
-143
-138
-132
-126
-113
-107
-108
-112
-100
-98
-95
-93
-92
-90
-85
-86
-93
-97
-92
-96
-97
-98
-99
-96
-90
-88
-91
-86
-74
-67
-58
-47
-37
-21
-6
4
7
22
37
48
60
72
82
96
106
110
106
116
119
121
124
126
126
132
132
127
120
125
125
126
129
132
135
146
149
147
143
155
159
165
172
180
191
205
214
219
226
243
251
261
272
281
293
307
314
314
321
333
337
343
348
350
359
366
369
366
375
385
390
398
406
413
425
436
443
443
460
472
482
494
505
514
529
537
540
538
548
550
552
553
552
550
554
548
536
520
518
507
497
488
478
468
460
445
423
402
388
365
344
322
300
281
263
239
209
186
169
146
125
105
85
71
56
36
12
-2
-14
-30
-43
-55
-66
-72
-79
-89
-105
-102
-107
-112
-115
-118
-122
-122
-126
-134
-145
-143
-149
-156
-162
-169
-178
-180
-191
-207
-223
-227
-238
-249
-258
-267
-274
-278
-287
-300
-309
-307
-311
-313
-312
-311
-306
-300
-299
-305
-302
-296
-295
-291
-285
-281
-271
-263
-261
-264
-258
-252
-251
-247
-243
-241
-232
-227
-227
-235
-225
-224
-225
-225
-224
-224
-218
-217
-219
-225
-216
-217
-215
-213
-213
-212
-205
-206
-210
-214
-207
-205
-203
-200
-199
-197
-193
-196
-205
-210
-207
-211
-213
-214
-216
-214
-210
-212
-220
-218
-212
-210
-205
-198
-191
-178
-165
-158
-155
-143
-129
-118
-106
-94
-83
-65
-53
-46
-46
-30
-22
-16
-9
-4
1
9
13
12
8
20
23
26
31
37
43
56
62
64
68
83
91
100
110
120
131
145
153
154
160
175
182
190
199
206
216
225
228
224
230
238
240
245
248
250
256
260
259
254
258
263
265
270
274
279
290
295
294
286
294
295
295
296
296
297
302
302
296
284
290
284
279
276
273
270
272
269
261
256
259
256
254
252
249
249
253
250
242
238
243
240
238
237
233
233
233
226
213
210
208
201
196
192
186
185
183
175
163
160
157
152
149
146
142
146
143
135
121
125
122
121
121
122
124
131
133
131
123
134
133
134
136
139
144
152
156
156
158
170
175
181
187
192
200
211
215
212
215
226
229
235
240
243
249
255
254
246
249
252
249
247
243
238
234
228
214
194
183
169
152
134
115
93
77
53
24
-11
-32
-60
-87
-113
-139
-164
-184
-210
-241
-276
-291
-317
-339
-359
-377
-393
-404
-421
-441
-458
-465
-479
-490
-499
-509
-515
-519
-527
-542
-551
-552
-561
-566
-571
-575
-573
-570
-572
-580
-575
-568
-564
-556
-546
-535
-520
-505
-492
-483
-461
-440
-421
-400
-379
-360
-334
-316
-303
-297
-279
-267
-258
-247
-238
-232
-220
-218
-224
-237
-233
-241
-249
-255
-261
-266
-266
-270
-277
-283
-281
-288
-296
-306
-321
-338
-360
-396
-446
-497
-548
-611
-676
-744
-814
-882
-953
-1032
-1119
-1198
-1280
-1370
-1461
-1557
-1658
-1758
-1864
-1979
-2103
-2217
-2341
-2473
-2610
-2750
-2896
-3037
-3185
-3337
-3491
-3630
-3771
-3910
-4045
-4178
-4307
-4423
-4538
-4647
-4746
-4817
-4886
-4941
-4985
-5021
-5049
-5068
-5086
-5101
-5105
-5085
-5057
-5007
-4933
-4833
-4704
-4550
-4381
-4200
-3997
-3778
-3557
-3329
-3102
-2880
-2658
-2444
-2242
-2054
-1863
-1676
-1498
-1323
-1154
-993
-836
-691
-560
-443
-314
-194
-79
34
146
255
370
480
586
687
800
902
999
1089
1170
1243
1314
1369
1412
1446
1490
1518
1543
1563
1576
1587
1597
1597
1590
1582
1582
1571
1560
1547
1530
1514
1497
1472
1441
1416
1397
1373
1352
1334
1316
1304
1293
1278
1259
1251
1246
1238
1233
1231
1231
1236
1240
1241
1235
1248
1253
1258
1266
1273
1280
1290
1294
1294
1289
1296
1295
1292
1289
1284
1277
1277
1269
1256
1242
1240
1232
1225
1218
1211
1206
1203
1196
1184
1175
1177
1171
1168
1166
1162
1161
1161
1153
1138
1131
1128
1118
1111
1103
1093
1088
1079
1063
1041
1028
1017
1003
990
977
966
961
953
940
918
915
904
891
879
866
853
843
828
806
779
765
740
714
688
660
632
610
580
545
509
485
453
423
394
365
339
317
291
261
237
225
206
190
177
163
154
147
135
118
110
107
98
90
83
72
66
56
40
19
7
-3
-17
-30
-42
-55
-61
-71
-85
-106
-106
-113
-119
-121
-122
-123
-119
-120
-124
-134
-129
-133
-137
-141
-146
-152
-154
-164
-179
-195
-201
-215
-227
-239
-251
-260
-265
-275
-290
-299
-298
-302
-303
-301
-299
-291
-280
-275
-274
-263
-248
-239
-228
-218
-209
-196
-185
-180
-181
-174
-166
-162
-157
-152
-149
-139
-133
-133
-139
-126
-119
-112
-102
-92
-80
-65
-53
-46
-44
-24
-15
-5
6
16
27
41
49
52
54
65
69
75
81
86
94
105
109
106
108
117
119
123
127
129
136
143
143
137
142
149
151
154
156
158
163
168
169
165
169
173
175
177
179
178
185
184
178
165
169
165
162
158
154
148
147
141
129
112
114
106
100
95
91
88
89
85
75
68
70
66
63
61
58
57
59
53
41
33
32
24
17
12
5
4
2
-5
-18
-19
-18
-21
-20
-18
-16
-9
-3
-1
-3
5
11
16
22
28
32
44
50
52
47
58
62
65
67
67
65
67
62
50
33
33
20
9
-2
-13
-24
-32
-44
-61
-76
-81
-91
-100
-108
-116
-121
-123
-132
-147
-158
-160
-169
-175
-181
-187
-188
-190
-198
-214
-217
-220
-226
-230
-234
-238
-237
-236
-238
-245
-241
-238
-238
-235
-232
-230
-219
-215
-215
-220
-209
-204
-199
-194
-190
-186
-176
-172
-173
-178
-166
-165
-163
-161
-160
-159
-155
-157
-163
-168
-164
-167
-168
-168
-169
-168
-165
-169
-178
-182
-178
-182
-182
-182
-184
-182
-183
-191
-207
-213
-220
-234
-247
-262
-279
-295
-313
-338
-369
-390
-417
-446
-475
-504
-536
-560
-590
-625
-662
-687
-716
-743
-765
-787
-805
-815
-830
-848
-868
-869
-880
-889
-896
-903
-908
-910
-916
-926
-932
-929
-932
-932
-932
-932
-928
-920
-917
-918
-910
-894
-884
-870
-854
-839
-817
-794
-777
-765
-743
-719
-699
-676
-653
-631
-605
-581
-562
-551
-526
-506
-489
-470
-452
-435
-412
-394
-382
-374
-353
-338
-323
-305
-289
-273
-250
-234
-225
-218
-196
-183
-171
-157
-145
-131
-115
-103
-95
-85
-65
-53
-40
-26
-14
1
16
26
29
41
59
71
85
99
112
130
146
157
162
179
199
215
234
254
274
299
322
340
351
379
400
421
443
463
482
505
523
534
540
557
567
576
587
597
607
624
632
636
638
655
664
675
687
698
713
730
742
749
758
777
786
797
809
819
832
845
852
851
857
868
871
876
880
882
889
893
891
882
883
885
883
882
881
878
879
878
871
857
862
859
856
854
851
848
848
843
834
820
818
809
800
792
784
777
776
768
753
738
736
725
717
710
704
700
698
690
677
667
666
657
651
646
640
639
640
635
625
623
625
621
619
618
614
616
616
611
601
599
597
591
585
579
571
568
562
552
534
535
527
520
514
508
501
499
492
481
467
470
465
463
462
461
460
466
464
456
449
453
451
450
450
449
450
452
447
436
426
426
417
411
406
400
399
400
395
383
381
383
380
380
381
383
392
399
401
400
407
417
424
432
441
449
463
473
477
474
490
496
501
506
511
514
520
523
521
516
528
531
534
539
543
546
554
553
548
543
547
544
541
538
533
528
525
513
493
475
464
444
425
404
380
358
336
305
267
239
213
183
156
130
105
86
67
45
18
1
-15
-33
-49
-64
-78
-83
-92
-105
-125
-126
-134
-142
-148
-154
-159
-159
-163
-171
-184
-180
-187
-193
-198
-204
-210
-213
-221
-233
-243
-243
-247
-249
-250
-251
-249
-244
-243
-247
-245
-233
-227
-218
-208
-199
-186
-174
-169
-171
-163
-154
-150
-145
-140
-137
-130
-125
-125
-130
-128
-124
-124
-121
-117
-114
-102
-97
-97
-102
-90
-85
-81
-75
-71
-66
-57
-52
-52
-58
-45
-45
-44
-42
-42
-41
-37
-39
-46
-51
-47
-50
-53
-55
-59
-61
-60
-65
-75
-80
-77
-80
-81
-81
-82
-79
-77
-79
-88
-85
-80
-78
-75
-71
-69
-62
-57
-55
-59
-53
-50
-49
-46
-43
-42
-34
-32
-36
-45
-39
-39
-40
-38
-35
-32
-22
-18
-17
-20
-3
4
12
24
35
48
64
75
83
93
112
123
135
147
156
166
178
184
182
187
198
203
210
218
225
236
247
252
250
260
272
281
294
307
319
334
349
359
364
380
393
402
412
420
425
435
435
428
414
410
398
384
369
352
334
323
305
283
256
250
233
219
208
199
193
192
188
180
175
181
179
179
180
180
182
187
185
176
174
177
172
169
164
158
157
154
146
131
128
127
121
118
117
115
118
121
120
114
123
127
131
137
144
149
161
166
167
162
170
171
173
176
178
179
186
185
178
167
175
172
171
172
173
177
185
188
188
190
202
206
213
221
229
239
251
257
256
261
270
271
273
275
275
280
282
279
269
270
272
270
269
269
266
266
265
259
247
250
245
239
234
227
217
213
202
186
166
157
142
127
113
99
84
76
60
39
16
9
-7
-21
-33
-44
-54
-61
-72
-88
-101
-102
-111
-116
-118
-120
-119
-115
-117
-125
-126
-122
-124
-124
-123
-123
-118
-115
-118
-127
-125
-123
-126
-127
-128
-129
-126
-126
-130
-141
-135
-136
-138
-138
-139
-141
-138
-140
-147
-158
-157
-161
-166
-170
-174
-179
-177
-183
-193
-205
-201
-205
-208
-210
-213
-214
-213
-217
-226
-231
-225
-228
-228
-228
-228
-226
-222
-225
-235
-238
-238
-243
-247
-250
-254
-253
-253
-258
-268
-267
-265
-265
-263
-260
-257
-248
-242
-240
-247
-235
-232
-231
-229
-229
-229
-225
-226
-232
-242
-238
-244
-249
-255
-261
-268
-268
-276
-289
-301
-300
-307
-311
-314
-317
-318
-315
-318
-325
-329
-322
-322
-320
-317
-314
-310
-304
-306
-315
-316
-313
-317
-319
-321
-325
-323
-323
-328
-337
-337
-335
-334
-330
-325
-319
-306
-297
-293
-295
-279
-270
-261
-251
-241
-232
-220
-212
-208
-210
-197
-195
-192
-189
-188
-188
-182
-183
-189
-193
-186
-186
-184
-180
-176
-169
-158
-152
-150
-143
-127
-118
-106
-94
-83
-68
-53
-44
-42
-30
-15
-5
8
21
33
50
65
73
74
83
92
96
102
106
109
119
123
121
112
121
122
122
125
128
132
140
144
144
141
155
158
163
169
175
181
192
198
199
201
212
216
221
226
230
236
245
247
242
242
250
250
251
252
252
256
260
260
255
261
270
276
285
296
307
322
337
347
352
366
380
390
401
411
419
431
437
435
426
433
432
429
427
425
423
425
423
417
407
414
410
408
407
406
405
407
403
391
380
377
367
356
346
334
325
318
304
284
267
258
241
225
210
194
182
171
155
133
124
117
107
99
93
87
87
86
83
76
79
84
86
92
96
100
111
114
113
105
113
113
111
111
110
109
113
110
103
90
96
90
86
84
82
81
84
82
76
72
76
75
75
76
76
78
84
84
77
75
80
78
77
77
75
78
82
79
70
72
75
72
72
73
73
76
78
75
64
63
58
50
43
35
25
24
18
8
-5
-3
-8
-16
-25
-38
-55
-70
-98
-137
-187
-225
-279
-337
-395
-456
-519
-581
-649
-724
-800
-869
-948
-1029
-1113
-1203
-1296
-1392
-1500
-1619
-1737
-1853
-1982
-2115
-2252
-2395
-2536
-2682
-2835
-2994
-3139
-3280
-3421
-3556
-3688
-3817
-3939
-4055
-4168
-4279
-4368
-4452
-4528
-4594
-4650
-4700
-4737
-4775
-4813
-4846
-4856
-4855
-4834
-4787
-4715
-4616
-4484
-4335
-4171
-3993
-3784
-3576
-3361
-3141
-2922
-2707
-2495
-2294
-2105
-1919
-1731
-1553
-1376
-1203
-1038
-881
-732
-599
-482
-365
-248
-143
-41
57
151
247
343
432
513
603
692
772
848
918
980
1039
1090
1128
1153
1186
1206
1217
1222
1220
1212
1207
1193
1171
1144
1129
1106
1081
1056
1029
1001
980
952
919
884
868
844
822
804
786
772
763
750
734
722
722
714
710
708
705
704
706
701
689
684
685
680
677
675
672
674
674
669
658
659
662
662
666
671
676
685
694
698
695
708
715
719
725
729
732
740
741
738
729
731
725
718
712
705
697
696
686
672
656
654
644
635
627
620
615
613
606
595
587
588
581
576
571
564
559
554
541
522
509
500
484
468
451
431
415
396
371
340
320
302
281
262
244
226
213
198
180
156
151
141
132
126
121
117
119
118
113
105
111
109
108
110
110
111
119
118
112
105
110
106
104
102
98
97
97
94
85
79
83
79
78
78
78
81
87
87
82
87
98
103
112
120
126
138
147
150
147
154
162
166
172
176
180
188
193
192
183
193
196
198
203
208
212
221
226
227
224
235
239
244
251
258
266
280
286
285
284
295
297
300
303
305
308
313
312
305
301
307
305
304
303
301
302
305
302
294
294
298
297
298
300
300
306
310
310
304
307
313
314
318
321
323
331
333
330
320
327
325
322
321
318
315
315
310
300
287
289
281
275
270
265
260
261
255
244
234
235
230
228
229
229
233
240
240
234
232
238
236
236
235
232
232
234
231
220
218
218
212
208
204
198
196
193
185
172
169
167
162
159
156
152
158
158
154
145
154
156
156
156
152
147
144
135
119
99
95
80
65
51
36
20
8
-11
-35
-58
-71
-89
-105
-119
-132
-143
-151
-165
-184
-197
-202
-214
-223
-231
-239
-243
-247
-258
-276
-285
-292
-305
-316
-326
-338
-345
-354
-367
-384
-391
-397
-405
-411
-417
-422
-420
-423
-429
-440
-435
-436
-436
-435
-434
-432
-426
-425
-429
-438
-428
-431
-433
-436
-440
-444
-446
-455
-468
-481
-485
-496
-504
-511
-519
-525
-528
-538
-554
-566
-568
-578
-584
-590
-597
-601
-606
-617
-636
-644
-651
-663
-673
-683
-694
-703
-713
-728
-748
-759
-772
-787
-802
-817
-833
-842
-857
-878
-903
-914
-931
-948
-965
-982
-998
-1007
-1022
-1040
-1061
-1062
-1074
-1083
-1089
-1095
-1099
-1098
-1102
-1109
-1113
-1107
-1106
-1104
-1102
-1102
-1099
-1094
-1097
-1105
-1108
-1105
-1109
-1110
-1110
-1110
-1106
-1102
-1102
-1109
-1103
-1095
-1090
-1081
-1072
-1063
-1050
-1038
-1030
-1028
-1014
-1002
-993
-981
-969
-957
-938
-926
-918
-916
-899
-888
-878
-865
-852
-838
-817
-801
-789
-781
-753
-736
-717
-696
-675
-650
-621
-596
-573
-547
-512
-483
-452
-420
-390
-358
-324
-298
-279
-254
-222
-198
-173
-147
-123
-95
-69
-48
-34
-8
19
43
69
96
122
151
181
205
224
255
284
310
339
368
397
431
459
481
498
528
552
575
600
624
648
678
700
716
729
758
775
793
811
828
847
868
884
895
908
930
946
963
981
999
1020
1043
1060
1071
1087
1109
1124
1141
1157
1172
1190
1206
1216
1217
1230
1244
1253
1264
1274
1284
1296
1306
1312
1311
1324
1332
1339
1347
1354
1360
1372
1379
1382
1381
1393
1399
1404
1410
1414
1418
1428
1429
1423
1413
1419
1415
1411
1408
1405
1403
1402
1396
1384
1373
1373
1363
1356
1349
1340
1335
1332
1323
1307
1300
1299
1293
1289
1285
1281
1283
1284
1280
1269
1270
1271
1268
1266
1264
1260
1259
1255
1246
1229
1227
1219
1208
1198
1186
1172
1163
1147
1127
1103
1092
1075
1058
1044
1029
1014
1007
993
974
954
949
936
926
917
908
901
897
887
872
859
854
841
829
817
805
796
789
775
754
741
732
717
705
693
681
675
668
658
643
639
637
632
630
628
625
628
628
623
612
618
615
612
609
605
599
598
592
581
567
567
560
554
550
545
540
541
535
523
510
510
502
496
490
483
478
473
462
445
430
422
406
390
375
358
344
330
307
278
256
237
212
189
166
143
126
107
83
53
31
10
-15
-40
-65
-92
-112
-137
-167
-207
-229
-260
-292
-323
-356
-389
-419
-452
-489
-528
-551
-581
-608
-633
-657
-681
-697
-718
-744
-767
-777
-791
-802
-811
-818
-823
-825
-831
-843
-850
-847
-851
-852
-852
-853
-851
-846
-848
-857
-856
-851
-852
-850
-847
-844
-837
-833
-833
-839
-835
-829
-826
-821
-815
-809
-795
-786
-782
-784
-768
-760
-753
-742
-732
-721
-706
-694
-686
-683
-663
-654
-644
-633
-624
-615
-602
-595
-593
-589
-576
-570
-562
-554
-547
-538
-527
-522
-522
-517
-504
-498
-491
-483
-477
-468
-458
-455
-457
-449
-438
-431
-420
-408
-397
-381
-366
-355
-350
-336
-321
-308
-294
-280
-266
-246
-233
-226
-226
-210
-201
-194
-186
-177
-168
-156
-149
-148
-152
-140
-139
-135
-131
-127
-123
-113
-108
-107
-104
-92
-86
-78
-68
-59
-47
-32
-23
-20
-13
2
9
17
26
32
42
52
55
53
61
72
78
87
97
107
122
137
147
154
170
186
200
217
233
248
270
285
296
300
320
332
342
352
361
369
380
385
384
377
388
387
387
388
388
388
393
393
388
386
394
397
401
407
412
419
429
434
432
433
443
444
446
449
449
453
455
452
441
440
441
437
434
433
431
433
437
436
432
440
447
454
464
476
487
507
520
529
533
552
564
575
587
597
606
620
626
628
624
638
640
642
645
648
652
659
661
659
659
668
669
673
678
681
687
695
698
694
697
707
710
715
721
725
734
742
744
738
744
751
753
756
759
762
767
772
772
767
772
775
775
777
778
778
785
785
781
771
773
769
764
758
751
743
740
728
709
684
675
654
634
614
592
571
551
526
494
464
442
413
385
358
329
303
279
248
211
181
158
129
101
75
48
28
9
-16
-46
-63
-78
-97
-113
-127
-142
-152
-162
-177
-198
-206
-219
-233
-247
-261
-278
-288
-305
-327
-354
-368
-387
-406
-424
-442
-458
-467
-483
-502
-521
-522
-532
-540
-545
-549
-550
-548
-549
-555
-558
-552
-554
-554
-552
-551
-548
-543
-544
-551
-550
-544
-543
-541
-537
-534
-525
-517
-514
-515
-504
-491
-481
-468
-453
-438
-419
-400
-387
-380
-357
-340
-326
-310
-295
-282
-264
-252
-244
-240
-225
-216
-207
-197
-188
-180
-165
-158
-157
-159
-145
-140
-132
-124
-117
-108
-98
-92
-92
-89
-77
-73
-68
-63
-60
-56
-50
-52
-61
-63
-61
-65
-69
-72
-77
-75
-74
-77
-85
-81
-75
-73
-69
-63
-59
-52
-47
-47
-54
-44
-42
-40
-36
-33
-31
-25
-23
-26
-34
-29
-30
-32
-32
-33
-34
-27
-29
-37
-48
-45
-51
-55
-57
-60
-61
-59
-63
-72
-77
-73
-76
-77
-76
-75
-70
-62
-59
-63
-57
-47
-43
-36
-30
-24
-14
-5
-2
-5
1
8
9
11
11
11
15
16
13
2
11
12
14
17
19
21
28
32
32
28
39
44
50
59
67
76
90
96
95
93
103
106
110
116
121
128
136
138
134
132
139
138
140
143
144
150
156
157
151
153
159
160
164
168
172
182
191
194
193
201
210
215
222
227
233
244
251
252
245
257
259
260
261
262
261
265
265
261
254
263
262
262
263
262
260
265
262
254
248
252
252
253
255
256
259
264
263
256
253
259
256
253
249
242
235
226
209
183
165
149
127
107
88
67
52
36
16
-10
-27
-43
-60
-75
-89
-104
-110
-120
-135
-155
-158
-169
-180
-191
-201
-212
-218
-227
-241
-259
-260
-270
-280
-288
-297
-305
-307
-317
-330
-343
-345
-353
-360
-366
-374
-380
-385
-397
-415
-427
-431
-441
-449
-454
-460
-461
-463
-473
-491
-502
-512
-532
-555
-582
-616
-652
-697
-751
-814
-870
-926
-986
-1044
-1102
-1161
-1214
-1274
-1341
-1417
-1479
-1554
-1634
-1718
-1808
-1904
-2001
-2107
-2225
-2353
-2470
-2602
-2738
-2878
-3021
-3163
-3299
-3438
-3577
-3712
-3834
-3959
-4079
-4193
-4302
-4401
-4489
-4574
-4655
-4721
-4768
-4814
-4850
-4880
-4906
-4919
-4920
-4911
-4886
-4825
-4736
-4626
-4488
-4328
-4151
-3953
-3746
-3536
-3327
-3107
-2886
-2673
-2464
-2262
-2068
-1874
-1692
-1520
-1356
-1181
-1019
-866
-723
-590
-464
-341
-231
-132
-45
56
142
227
314
400
487
576
658
731
799
870
926
975
1018
1053
1086
1117
1138
1148
1159
1174
1179
1183
1187
1187
1191
1193
1188
1175
1174
1173
1166
1160
1154
1146
1141
1136
1126
1111
1107
1104
1100
1100
1100
1100
1107
1109
1107
1102
1111
1117
1123
1131
1140
1149
1164
1173
1176
1175
1192
1196
1202
1209
1216
1222
1230
1233
1229
1227
1235
1234
1235
1236
1237
1241
1247
1247
1241
1240
1247
1245
1246
1246
1247
1252
1257
1256
1249
1253
1258
1258
1260
1262
1263
1267
1270
1269
1262
1267
1267
1265
1264
1262
1258
1260
1256
1248
1236
1238
1234
1231
1228
1223
1217
1216
1208
1194
1176
1174
1161
1150
1140
1130
1121
1113
1099
1080
1061
1051
1033
1016
1000
983
968
956
937
911
890
876
854
835
815
794
779
762
738
707
688
668
644
621
598
573
553
532
506
475
457
434
410
387
363
339
322
300
275
247
232
214
197
181
166
150
142
126
105
82
76
61
48
36
24
14
6
-6
-23
-37
-41
-51
-59
-65
-72
-76
-78
-86
-100
-107
-107
-113
-116
-118
-121
-118
-118
-124
-137
-139
-141
-147
-153
-158
-164
-167
-173
-185
-205
-209
-221
-235
-247
-260
-273
-281
-292
-307
-325
-330
-341
-351
-360
-368
-375
-374
-381
-393
-406
-403
-409
-413
-417
-421
-424
-426
-433
-444
-453
-453
-460
-466
-471
-476
-478
-477
-481
-490
-489
-482
-478
-471
-461
-452
-436
-421
-412
-407
-392
-376
-363
-347
-330
-314
-293
-275
-263
-258
-237
-224
-214
-202
-192
-183
-170
-164
-162
-166
-158
-159
-160
-160
-162
-164
-159
-161
-167
-173
-166
-165
-163
-160
-157
-152
-144
-141
-144
-144
-136
-137
-137
-137
-138
-138
-137
-143
-157
-162
-163
-170
-175
-179
-186
-187
-190
-199
-212
-216
-217
-221
-222
-222
-222
-216
-214
-216
-226
-217
-216
-215
-212
-210
-208
-203
-202
-207
-217
-214
-220
-226
-231
-238
-244
-243
-251
-262
-274
-275
-282
-288
-294
-300
-304
-304
-310
-320
-325
-321
-326
-329
-331
-334
-335
-334
-341
-354
-359
-359
-365
-370
-374
-380
-381
-383
-391
-404
-408
-409
-414
-417
-420
-422
-418
-418
-423
-434
-426
-425
-423
-417
-409
-401
-387
-377
-371
-369
-352
-344
-335
-326
-318
-310
-297
-292
-293
-295
-289
-289
-289
-288
-288
-287
-283
-285
-293
-298
-294
-297
-298
-297
-297
-292
-286
-285
-290
-286
-279
-278
-276
-274
-275
-272
-272
-278
-289
-293
-295
-301
-307
-315
-326
-331
-341
-358
-383
-389
-404
-419
-432
-446
-460
-470
-483
-501
-521
-523
-533
-539
-544
-548
-552
-551
-556
-566
-576
-576
-581
-585
-588
-591
-591
-588
-591
-600
-604
-598
-600
-599
-597
-596
-590
-584
-583
-588
-581
-571
-566
-557
-548
-539
-524
-509
-498
-491
-473
-454
-438
-419
-400
-382
-356
-337
-323
-315
-290
-273
-257
-239
-223
-208
-189
-176
-168
-166
-145
-135
-123
-109
-95
-80
-61
-47
-37
-24
-2
15
35
57
79
104
132
153
166
185
211
229
250
271
290
312
333
346
352
367
382
392
403
414
424
439
453
464
470
487
504
518
536
553
569
592
609
620
625
644
656
667
679
690
699
713
720
722
718
733
737
743
750
756
763
773
777
777
779
791
797
805
815
824
836
850
857
859
865
879
886
896
906
915
927
937
941
936
942
949
950
953
956
957
961
964
962
953
955
953
948
946
943
938
940
935
926
913
915
911
908
906
904
902
907
905
899
890
900
899
899
899
898
896
894
886
873
860
857
847
839
831
823
817
814
805
790
783
783
778
776
775
775
780
785
784
776
780
784
784
786
787
787
788
789
783
771
770
764
756
749
743
736
735
728
716
700
697
690
681
674
668
663
665
661
652
641
647
642
639
636
633
630
629
624
614
606
607
599
592
587
579
573
569
557
539
529
524
514
506
498
489
485
480
469
453
448
447
442
441
440
439
442
443
439
429
433
431
427
426
424
421
425
423
416
404
403
396
387
380
371
362
360
351
336
318
316
305
295
286
277
271
268
261
250
243
248
244
244
246
247
251
258
259
254
255
263
264
267
269
270
275
280
278
272
277
284
288
294
301
307
317
326
329
325
338
345
349
356
362
366
375
377
374
366
370
366
362
357
351
345
344
335
320
302
298
286
274
263
253
245
240
232
219
208
208
199
193
188
183
181
181
174
161
157
156
150
145
140
134
133
130
123
110
107
105
100
97
93
89
89
86
78
63
67
65
62
62
62
63
68
69
66
61
69
70
73
78
83
87
97
96
88
78
78
70
63
57
50
46
44
37
25
17
19
12
7
4
0
0
2
-1
-10
-10
-6
-7
-6
-4
-3
4
11
13
10
17
25
29
34
40
46
57
65
68
64
80
87
93
101
107
113
121
126
126
123
135
139
143
149
155
159
171
174
172
171
180
183
189
196
202
210
221
225
221
220
228
226
226
226
224
225
227
222
211
209
211
207
206
205
202
204
204
200
192
192
193
191
190
190
188
194
195
191
180
189
188
186
184
181
176
175
169
158
142
142
132
122
114
104
94
89
77
60
45
39
28
20
14
7
2
0
-9
-24
-35
-37
-48
-57
-66
-77
-84
-92
-107
-130
-145
-157
-176
-193
-209
-225
-237
-250
-269
-293
-309
-325
-345
-363
-381
-399
-409
-424
-442
-466
-472
-485
-498
-509
-519
-529
-534
-542
-555
-572
-572
-582
-592
-600
-608
-617
-620
-629
-641
-652
-652
-657
-660
-662
-665
-665
-663
-666
-676
-680
-674
-676
-675
-673
-672
-667
-663
-665
-674
-672
-668
-669
-668
-666
-665
-661
-657
-659
-665
-662
-659
-659
-655
-652
-648
-637
-632
-631
-636
-625
-620
-616
-613
-610
-609
-604
-606
-614
-627
-621
-626
-628
-627
-624
-618
-606
-598
-594
-589
-576
-572
-570
-573
-583
-597
-613
-642
-680
-716
-746
-785
-823
-862
-902
-941
-982
-1032
-1090
-1141
-1193
-1253
-1315
-1381
-1453
-1528
-1611
-1706
-1815
-1921
-2037
-2162
-2292
-2427
-2565
-2697
-2834
-2976
-3122
-3253
-3389
-3527
-3663
-3796
-3922
-4033
-4141
-4243
-4338
-4404
-4471
-4527
-4572
-4611
-4643
-4664
-4682
-4691
-4684
-4647
-4595
-4516
-4410
-4280
-4125
-3949
-3763
-3572
-3367
-3151
-2942
-2736
-2536
-2346
-2161
-1984
-1820
-1669
-1514
-1366
-1232
-1107
-990
-881
-773
-669
-570
-474
-364
-255
-144
-28
90
208
334
454
567
672
787
891
988
1080
1166
1247
1329
1398
1455
1501
1560
1601
1637
1670
1697
1720
1741
1752
1753
1751
1755
1748
1740
1731
1719
1708
1699
1684
1661
1645
1636
1619
1605
1591
1577
1568
1560
1546
1528
1524
1524
1521
1522
1525
1530
1540
1550
1557
1559
1574
1586
1596
1607
1618
1627
1640
1647
1647
1642
1649
1651
1651
1651
1649
1647
1650
1644
1632
1616
1618
1610
1603
1598
1593
1589
1587
1579
1565
1552
1547
1533
1519
1505
1488
1473
1457
1433
1401
1375
1353
1322
1292
1260
1225
1194
1161
1122
1076
1043
1013
979
948
920
892
870
848
825
797
786
771
756
743
732
719
713
702
688
671
666
656
647
638
630
620
616
605
587
568
564
553
542
534
525
518
514
505
491
479
477
468
461
455
448
443
440
431
416
406
402
392
383
375
366
362
357
346
328
321
315
305
297
290
282
278
274
265
249
251
246
240
235
229
222
221
214
204
189
188
179
171
163
154
145
143
133
119
104
103
96
90
87
83
82
84
81
74
70
75
74
74
76
76
79
82
79
68
64
64
59
54
50
45
44
42
34
20
15
11
4
-1
-4
-6
-2
0
-2
-9
2
6
10
16
22
26
34
38
36
29
34
30
23
16
6
-5
-10
-23
-42
-62
-69
-85
-100
-115
-131
-147
-162
-183
-210
-234
-249
-270
-289
-306
-324
-339
-352
-372
-399
-417
-432
-451
-468
-483
-499
-509
-520
-536
-556
-567
-575
-586
-593
-599
-603
-600
-600
-604
-614
-605
-603
-602
-598
-594
-590
-582
-578
-578
-584
-574
-575
-575
-575
-575
-576
-571
-573
-580
-586
-582
-584
-585
-584
-584
-581
-573
-570
-571
-566
-551
-544
-534
-523
-513
-500
-486
-479
-478
-468
-455
-448
-440
-433
-428
-420
-414
-413
-418
-415
-409
-406
-401
-396
-390
-378
-370
-368
-373
-359
-354
-348
-341
-335
-329
-318
-312
-311
-314
-300
-297
-292
-287
-282
-277
-267
-263
-266
-269
-264
-267
-270
-273
-277
-281
-284
-295
-313
-330
-339
-358
-377
-396
-417
-434
-450
-473
-501
-519
-533
-552
-567
-581
-596
-606
-617
-632
-651
-660
-666
-676
-684
-690
-698
-699
-706
-720
-741
-745
-758
-773
-785
-798
-812
-821
-835
-855
-879
-885
-901
-915
-926
-936
-944
-947
-954
-963
-970
-965
-965
-962
-956
-950
-940
-927
-919
-917
-910
-894
-886
-877
-868
-860
-849
-838
-833
-835
-826
-816
-811
-804
-797
-791
-780
-770
-764
-761
-748
-733
-720
-704
-687
-671
-648
-630
-618
-611
-589
-573
-556
-539
-522
-508
-489
-476
-469
-467
-447
-438
-427
-414
-402
-389
-371
-357
-347
-335
-313
-297
-278
-258
-237
-213
-186
-165
-150
-130
-102
-81
-58
-34
-12
15
41
61
75
101
128
149
172
196
219
246
273
296
313
341
367
391
416
441
465
496
519
537
551
580
601
622
644
665
687
715
735
749
758
786
803
820
838
855
871
889
900
906
912
926
933
941
950
956
965
976
981
980
984
996
1000
1007
1015
1022
1033
1044
1048
1046
1055
1064
1069
1074
1080
1085
1093
1100
1102
1097
1102
1102
1097
1093
1088
1079
1075
1066
1051
1032
1025
1014
1002
991
980
970
967
957
944
930
935
930
927
926
924
923
923
917
905
894
892
882
872
862
850
840
830
813
790
773
762
746
731
719
707
701
694
682
665
660
657
651
647
642
637
635
632
624
608
605
597
586
578
570
561
558
551
539
523
520
511
501
491
479
465
456
440
418
393
384
366
350
335
321
308
299
287
270
259
259
253
249
248
244
244
245
239
227
220
220
212
206
200
193
191
188
179
163
158
155
149
146
143
140
142
142
137
125
129
128
126
126
126
126
132
135
134
129
137
139
140
143
147
152
164
168
168
167
181
186
192
199
206
214
225
230
231
234
247
252
258
265
271
279
289
292
289
292
301
302
305
310
312
319
322
319
310
311
313
312
314
317
320
328
335
337
334
348
356
365
376
388
399
417
429
437
440
456
465
475
486
497
508
526
535
538
539
551
555
559
562
563
566
570
568
560
555
559
554
552
549
545
545
545
540
529
527
529
526
526
526
524
528
531
529
522
524
527
527
528
529
529
534
535
529
514
517
513
507
504
500
494
493
487
476
462
463
455
449
444
441
439
445
443
436
430
436
436
437
439
440
444
451
452
447
445
452
449
448
447
443
443
444
439
427
424
424
419
415
412
407
408
407
403
396
398
402
404
408
412
416
425
431
430
422
433
434
433
433
431
427
426
419
405
387
383
370
357
346
334
321
314
300
281
263
256
244
236
229
223
219
219
213
202
194
193
184
175
167
157
150
143
129
108
95
85
68
53
38
23
12
1
-14
-33
-44
-53
-64
-73
-82
-91
-92
-98
-108
-123
-120
-123
-127
-129
-131
-134
-133
-136
-143
-154
-148
-152
-156
-158
-161
-165
-164
-171
-183
-194
-198
-208
-216
-223
-231
-237
-241
-251
-268
-280
-284
-293
-299
-301
-303
-299
-292
-290
-293
-285
-274
-268
-259
-251
-243
-232
-222
-216
-215
-206
-196
-191
-183
-177
-171
-158
-152
-151
-158
-150
-149
-149
-150
-154
-160
-164
-176
-196
-222
-231
-251
-269
-286
-302
-318
-331
-352
-379
-406
-427
-458
-492
-528
-572
-620
-671
-734
-806
-875
-937
-1007
-1075
-1142
-1210
-1275
-1341
-1416
-1500
-1575
-1651
-1736
-1823
-1913
-2010
-2108
-2213
-2329
-2457
-2580
-2710
-2847
-2983
-3120
-3256
-3382
-3510
-3638
-3766
-3874
-3984
-4090
-4189
-4281
-4364
-4433
-4498
-4555
-4606
-4628
-4654
-4673
-4684
-4688
-4679
-4649
-4602
-4534
-4437
-4305
-4154
-3978
-3783
-3575
-3355
-3127
-2900
-2678
-2453
-2225
-2013
-1808
-1613
-1429
-1249
-1076
-913
-763
-609
-463
-332
-210
-97
6
104
194
274
343
419
490
557
627
695
762
835
898
953
997
1050
1091
1127
1159
1186
1210
1236
1251
1259
1259
1275
1278
1281
1284
1284
1283
1283
1277
1267
1258
1257
1247
1239
1230
1221
1214
1210
1201
1186
1179
1180
1175
1173
1172
1170
1173
1175
1171
1161
1163
1167
1167
1171
1175
1179
1186
1194
1195
1191
1199
1204
1206
1210
1212
1213
1219
1219
1213
1201
1202
1196
1190
1184
1176
1168
1167
1158
1144
1126
1125
1113
1103
1094
1085
1078
1074
1065
1051
1039
1037
1028
1020
1013
1005
998
993
981
963
951
946
934
923
913
902
895
887
874
856
849
844
835
827
820
812
808
802
791
774
771
762
752
743
733
720
713
700
682
659
649
633
617
604
591
578
572
560
543
523
521
509
500
493
486
481
479
471
457
444
440
427
414
403
389
379
371
357
337
323
315
300
287
274
261
254
247
234
217
211
208
202
197
192
186
184
181
172
157
158
152
144
138
130
119
113
100
82
58
46
29
11
-4
-20
-35
-42
-59
-80
-103
-111
-128
-143
-157
-171
-182
-191
-205
-225
-244
-253
-271
-286
-301
-317
-330
-343
-362
-387
-403
-413
-429
-441
-452
-463
-469
-475
-486
-503
-509
-512
-520
-524
-527
-528
-524
-522
-525
-534
-525
-524
-525
-525
-526
-529
-528
-532
-540
-551
-549
-553
-556
-558
-561
-565
-563
-569
-581
-593
-591
-596
-600
-602
-605
-606
-604
-607
-616
-621
-615
-618
-617
-615
-614
-609
-603
-604
-611
-611
-608
-613
-616
-619
-624
-623
-625
-633
-646
-650
-653
-660
-665
-668
-672
-669
-668
-672
-681
-671
-668
-664
-658
-652
-646
-634
-627
-623
-623
-609
-603
-597
-590
-583
-577
-565
-561
-561
-561
-551
-546
-540
-533
-526
-518
-506
-501
-502
-497
-483
-477
-467
-457
-447
-433
-419
-412
-411
-401
-388
-381
-371
-360
-351
-338
-326
-319
-318
-309
-300
-296
-290
-284
-279
-269
-264
-266
-275
-267
-267
-268
-267
-267
-267
-263
-263
-266
-273
-263
-264
-263
-260
-258
-255
-246
-245
-248
-250
-244
-245
-245
-246
-248
-250
-249
-255
-268
-276
-276
-285
-291
-296
-301
-303
-304
-312
-327
-331
-332
-338
-340
-340
-341
-338
-335
-337
-345
-343
-340
-340
-339
-337
-336
-329
-329
-334
-348
-344
-349
-353
-357
-361
-365
-365
-369
-378
-392
-388
-395
-401
-406
-412
-418
-419
-425
-435
-442
-439
-441
-442
-441
-441
-439
-434
-435
-441
-443
-437
-438
-436
-435
-436
-433
-430
-433
-442
-440
-434
-432
-426
-420
-413
-402
-392
-387
-385
-374
-362
-352
-340
-326
-313
-292
-276
-266
-262
-243
-230
-218
-203
-189
-175
-155
-140
-131
-126
-103
-91
-77
-61
-46
-29
-8
9
22
37
63
83
104
127
149
174
203
226
243
266
297
320
345
369
391
416
440
457
468
490
512
529
546
564
580
598
615
627
632
647
661
671
683
693
701
715
722
722
717
725
726
726
727
728
729
734
732
724
711
717
710
705
703
699
697
699
696
688
683
688
685
685
685
684
685
689
688
681
681
689
690
693
698
703
712
720
721
715
720
725
725
725
724
720
718
715
707
693
689
682
673
664
655
644
640
630
615
596
591
582
573
565
558
552
552
546
535
520
524
518
515
514
513
514
517
515
508
502
506
501
499
497
494
494
495
489
478
472
473
468
465
464
461
464
465
461
450
451
453
450
450
451
451
455
459
459
454
462
465
466
468
468
467
472
471
464
453
455
452
449
447
445
443
449
447
440
431
440
439
440
443
447
451
459
461
459
459
469
471
475
481
484
490
497
497
490
488
491
487
484
481
477
478
478
471
458
456
456
451
448
446
443
445
445
442
432
438
438
437
438
438
439
445
446
443
436
441
441
440
440
439
435
438
432
420
407
410
403
398
395
392
390
391
388
380
376
384
384
388
393
398
406
416
418
413
415
421
419
419
418
414
414
408
394
370
353
335
311
289
267
245
227
205
179
145
125
95
58
19
-27
-79
-132
-194
-264
-341
-408
-482
-556
-631
-710
-792
-871
-960
-1058
-1163
-1261
-1371
-1483
-1600
-1726
-1861
-2006
-2166
-2340
-2516
-2686
-2866
-3045
-3224
-3401
-3574
-3745
-3920
-4097
-4259
-4407
-4549
-4676
-4788
-4883
-4958
-5019
-5070
-5110
-5123
-5119
-5107
-5081
-5045
-5001
-4946
-4886
-4818
-4736
-4609
-4462
-4288
-4086
-3860
-3617
-3355
-3090
-2825
-2563
-2288
-2023
-1764
-1510
-1264
-1029
-795
-578
-375
-180
20
205
384
558
725
889
1050
1196
1327
1451
1572
1671
1758
1835
1898
1952
1996
2021
2028
2034
2035
2023
2005
1980
1948
1915
1876
1830
1778
1734
1694
1653
1618
1587
1559
1539
1518
1495
1468
1463
1453
1445
1441
1439
1439
1445
1448
1447
1443
1454
1457
1462
1468
1474
1479
1490
1491
1486
1479
1480
1472
1463
1453
1440
1428
1416
1397
1370
1344
1326
1297
1268
1238
1205
1175
1145
1108
1064
1029
998
962
929
898
868
844
820
792
761
740
723
702
683
665
645
632
613
590
559
548
529
509
491
472
452
438
418
395
369
360
341
325
311
298
286
280
268
252
236
229
216
204
193
182
173
168
156
139
127
125
116
109
105
100
101
103
100
91
93
96
95
95
96
95
98
98
94
84
82
80
75
71
67
60
61
56
45
30
31
26
21
18
15
13
15
13
6
-6
1
-3
-7
-8
-10
-12
-11
-16
-26
-36
-37
-46
-54
-61
-69
-75
-78
-87
-102
-112
-114
-123
-129
-134
-139
-140
-140
-145
-157
-157
-155
-158
-159
-159
-160
-157
-155
-157
-164
-163
-163
-165
-166
-167
-171
-167
-170
-178
-190
-188
-191
-196
-199
-203
-207
-206
-211
-221
-235
-229
-235
-238
-240
-242
-243
-242
-245
-253
-258
-254
-255
-255
-252
-251
-248
-242
-244
-251
-253
-248
-250
-248
-246
-245
-240
-236
-237
-245
-242
-238
-239
-236
-233
-229
-220
-212
-207
-206
-196
-188
-181
-174
-167
-161
-149
-142
-141
-145
-135
-132
-131
-129
-128
-127
-121
-122
-128
-138
-130
-132
-132
-131
-130
-127
-120
-119
-122
-123
-113
-110
-104
-98
-92
-83
-73
-70
-74
-72
-63
-62
-59
-56
-55
-50
-48
-52
-63
-62
-61
-63
-63
-61
-60
-55
-51
-51
-57
-51
-49
-50
-49
-49
-51
-45
-45
-51
-61
-59
-63
-69
-75
-81
-89
-89
-97
-111
-128
-128
-139
-149
-157
-166
-172
-176
-183
-194
-203
-201
-206
-207
-208
-209
-208
-204
-206
-213
-213
-206
-204
-199
-192
-187
-177
-170
-170
-178
-175
-171
-172
-171
-171
-171
-168
-167
-172
-183
-181
-184
-188
-190
-191
-191
-185
-184
-187
-194
-189
-189
-189
-187
-184
-181
-169
-164
-164
-167
-154
-151
-147
-143
-141
-138
-134
-135
-141
-145
-140
-143
-146
-148
-152
-153
-153
-160
-173
-181
-183
-193
-202
-211
-223
-232
-244
-265
-293
-312
-333
-358
-382
-408
-437
-463
-492
-527
-570
-597
-630
-665
-698
-731
-765
-792
-824
-859
-897
-921
-949
-975
-997
-1016
-1033
-1039
-1052
-1068
-1083
-1082
-1087
-1090
-1088
-1085
-1079
-1070
-1064
-1063
-1060
-1047
-1042
-1036
-1029
-1024
-1015
-1005
-1001
-1003
-997
-986
-981
-974
-967
-959
-947
-934
-926
-921
-905
-884
-866
-844
-819
-794
-763
-733
-707
-688
-650
-619
-589
-556
-524
-493
-457
-426
-399
-377
-342
-315
-288
-259
-231
-204
-170
-146
-127
-109
-79
-57
-33
-8
16
42
71
95
113
135
165
187
211
236
260
287
315
336
350
372
398
417
438
458
477
501
524
543
556
579
605
627
651
675
698
725
749
767
779
809
831
852
874
894
912
934
952
964
972
993
1006
1019
1033
1045
1056
1072
1079
1079
1078
1088
1090
1094
1098
1101
1106
1114
1116
1112
1112
1122
1123
1127
1131
1135
1143
1151
1153
1148
1151
1157
1156
1157
1157
1155
1159
1160
1156
1147
1146
1145
1140
1137
1134
1129
1132
1130
1123
1110
1116
1114
1112
1111
1110
1109
1111
1109
1103
1094
1101
1099
1098
1099
1100
1100
1105
1104
1097
1092
1098
1097
1098
1099
1099
1100
1104
1101
1092
1086
1090
1085
1081
1079
1076
1076
1077
1071
1058
1054
1052
1045
1041
1037
1033
1035
1035
1031
1023
1024
1026
1025
1027
1030
1032
1041
1046
1045
1037
1047
1048
1047
1047
1046
1045
1048
1046
1042
1032
1040
1038
1036
1036
1036
1036
1042
1040
1034
1029
1033
1031
1029
1028
1025
1022
1022
1015
1002
993
994
986
980
974
964
957
949
933
909
894
881
862
846
830
812
799
786
768
745
732
719
703
691
678
666
662
652
637
616
609
595
578
560
541
520
504
481
453
420
406
379
354
328
302
277
257
234
207
184
171
154
141
130
120
115
114
108
99
96
102
101
102
103
102
105
106
100
85
82
78
70
63
57
49
44
39
28
12
6
0
-8
-14
-19
-24
-20
-22
-29
-40
-36
-38
-40
-41
-42
-43
-38
-39
-45
-57
-50
-56
-61
-64
-67
-70
-69
-73
-81
-87
-83
-86
-89
-90
-92
-92
-90
-94
-103
-107
-103
-106
-108
-109
-112
-109
-107
-109
-117
-114
-109
-107
-103
-99
-96
-90
-86
-86
-93
-89
-88
-88
-86
-84
-84
-77
-77
-82
-92
-89
-90
-92
-93
-93
-93
-85
-83
-86
-93
-81
-79
-76
-72
-68
-64
-57
-55
-58
-61
-54
-56
-58
-59
-63
-64
-62
-66
-76
-79
-76
-79
-80
-80
-81
-77
-73
-74
-81
-75
-67
-64
-58
-52
-46
-37
-29
-25
-28
-17
-10
-5
2
8
11
20
22
19
12
17
17
17
19
21
23
33
35
32
26
39
41
46
53
60
69
81
88
91
95
109
113
120
128
135
146
160
168
168
175
188
193
200
208
215
227
239
245
246
258
273
283
296
309
321
337
353
364
370
392
408
424
442
459
475
498
514
525
532
551
564
577
591
603
614
630
637
638
636
650
652
656
659
662
665
670
669
661
655
658
652
648
645
641
638
637
628
611
600
592
576
560
543
524
509
492
468
437
416
395
369
346
323
301
283
265
245
219
210
195
180
165
148
130
117
100
79
54
42
25
8
-6
-20
-33
-38
-50
-67
-85
-87
-96
-103
-108
-114
-119
-122
-132
-146
-158
-158
-166
-170
-173
-177
-177
-175
-180
-191
-194
-191
-194
-193
-191
-190
-184
-179
-179
-186
-184
-180
-181
-181
-180
-179
-173
-170
-171
-179
-170
-168
-168
-166
-164
-161
-154
-149
-147
-147
-133
-126
-118
-108
-99
-89
-73
-65
-62
-60
-45
-39
-32
-24
-19
-12
-3
0
-2
-2
7
8
11
14
14
16
18
13
0
-4
-5
-11
-16
-19
-25
-27
-31
-40
-55
-61
-65
-72
-77
-81
-84
-81
-82
-87
-98
-91
-92
-95
-97
-99
-102
-102
-106
-115
-129
-129
-138
-147
-155
-164
-172
-173
-181
-192
-202
-200
-204
-205
-204
-204
-201
-194
-192
-194
-192
-181
-177
-171
-166
-162
-156
-151
-152
-160
-159
-156
-158
-159
-161
-163
-161
-160
-164
-173
-173
-170
-170
-167
-164
-161
-150
-145
-145
-153
-142
-139
-137
-133
-130
-127
-119
-116
-119
-126
-117
-119
-120
-120
-120
-120
-114
-114
-119
-121
-113
-112
-109
-104
-99
-92
-80
-75
-75
-70
-57
-52
-45
-39
-34
-26
-18
-16
-22
-17
-10
-9
-6
-3
-3
0
0
-6
-16
-18
-18
-22
-23
-24
-26
-20
-21
-27
-39
-34
-37
-39
-39
-39
-39
-35
-37
-44
-56
-51
-57
-62
-65
-69
-73
-72
-77
-87
-97
-99
-108
-116
-122
-129
-133
-133
-138
-148
-153
-149
-152
-152
-151
-150
-144
-137
-136
-141
-134
-124
-120
-112
-105
-98
-89
-80
-76
-77
-69
-61
-57
-50
-44
-40
-28
-23
-23
-28
-17
-12
-8
-3
1
4
10
11
6
-4
5
2
2
3
3
5
10
10
4
1
6
6
8
11
15
21
30
32
27
27
34
31
30
29
26
26
26
19
5
2
0
-7
-11
-13
-16
-14
-11
-11
-14
-6
1
6
12
16
19
30
34
33
27
35
37
39
41
43
45
52
53
49
40
52
54
58
64
70
77
87
92
93
96
108
113
121
130
138
149
162
168
168
173
185
190
196
202
206
214
221
221
214
218
221
219
219
220
219
222
226
225
220
226
230
232
236
239
241
249
252
250
244
251
252
250
250
247
245
248
244
235
221
225
218
213
208
203
198
194
186
174
164
165
159
156
154
152
151
152
146
133
124
121
110
100
89
75
64
50
30
3
-14
-29
-47
-64
-81
-101
-120
-143
-172
-212
-243
-284
-333
-387
-446
-511
-572
-640
-714
-792
-858
-930
-1004
-1078
-1155
-1235
-1311
-1399
-1496
-1601
-1695
-1805
-1918
-2036
-2159
-2288
-2422
-2566
-2719
-2873
-3020
-3175
-3327
-3476
-3623
-3762
-3896
-4032
-4172
-4299
-4413
-4525
-4624
-4711
-4789
-4852
-4906
-4957
-5007
-5040
-5068
-5095
-5114
-5122
-5118
-5093
-5048
-4985
-4903
-4781
-4642
-4485
-4307
-4116
-3916
-3701
-3487
-3276
-3072
-2861
-2663
-2470
-2283
-2101
-1925
-1745
-1577
-1422
-1277
-1126
-994
-870
-751
-639
-529
-421
-320
-227
-132
-29
68
166
264
358
451
539
613
672
730
786
827
862
892
914
934
947
948
939
937
935
926
918
910
902
896
887
871
847
838
821
803
788
772
756
747
734
717
699
696
687
681
678
677
678
687
692
692
692
707
715
724
736
748
762
780
793
802
813
834
847
863
878
892
909
927
938
944
957
975
986
1000
1014
1027
1044
1060
1070
1074
1088
1104
1117
1131
1146
1160
1179
1194
1203
1204
1223
1234
1243
1252
1260
1267
1277
1281
1279
1272
1277
1274
1272
1270
1267
1265
1268
1263
1251
1239
1239
1231
1225
1221
1216
1214
1215
1210
1199
1191
1192
1185
1179
1173
1165
1160
1155
1142
1123
1112
1104
1090
1077
1065
1050
1041
1031
1016
997
988
981
971
963
955
947
945
937
925
905
905
896
887
881
875
867
864
856
845
829
828
818
810
804
799
794
796
790
780
769
769
762
757
753
748
746
746
741
729
721
722
715
710
705
699
696
695
688
674
668
666
657
651
645
638
636
633
626
615
613
611
607
603
599
594
595
590
579
561
561
553
543
535
526
515
508
496
479
457
451
436
423
412
401
390
385
374
359
345
342
333
327
322
316
312
311
302
287
276
273
261
251
239
226
214
203
185
159
142
126
104
83
63
41
24
7
-15
-40
-57
-73
-93
-112
-131
-150
-162
-180
-205
-235
-249
-272
-296
-319
-344
-370
-392
-419
-451
-487
-505
-533
-559
-584
-608
-632
-650
-674
-702
-726
-740
-759
-774
-786
-799
-808
-813
-825
-842
-854
-857
-866
-873
-879
-886
-889
-892
-902
-919
-925
-930
-939
-945
-949
-954
-953
-952
-955
-963
-960
-958
-958
-955
-953
-951
-942
-939
-940
-947
-939
-937
-935
-933
-932
-930
-923
-922
-925
-932
-920
-919
-917
-913
-909
-905
-897
-894
-896
-896
-886
-882
-876
-869
-864
-857
-847
-843
-845
-841
-828
-823
-814
-804
-795
-782
-769
-762
-762
-751
-739
-732
-723
-715
-708
-699
-691
-688
-692
-685
-681
-679
-675
-670
-667
-655
-649
-648
-652
-643
-639
-635
-631
-627
-623
-611
-604
-601
-601
-582
-574
-565
-555
-547
-537
-525
-518
-514
-508
-493
-486
-477
-467
-459
-448
-434
-426
-424
-415
-399
-389
-376
-363
-351
-334
-318
-307
-303
-287
-269
-256
-240
-224
-210
-192
-176
-166
-164
-150
-142
-137
-132
-128
-126
-118
-117
-120
-128
-123
-123
-124
-123
-121
-119
-109
-108
-111
-118
-107
-106
-104
-99
-95
-90
-81
-78
-78
-77
-67
-65
-61
-56
-52
-45
-35
-31
-33
-29
-18
-14
-8
-3
1
9
16
18
14
22
32
38
47
57
67
80
92
100
102
120
135
149
168
186
204
228
247
260
269
290
305
320
337
353
368
390
404
412
417
437
447
459
473
486
503
522
537
548
561
586
603
624
646
668
693
722
744
759
781
807
826
846
864
881
902
919
930
935
951
968
980
994
1007
1018
1033
1046
1054
1054
1070
1078
1085
1092
1098
1101
1108
1108
1102
1090
1090
1082
1072
1061
1046
1029
1016
993
962
928
907
876
845
815
784
755
729
696
658
623
598
566
535
506
478
453
430
403
371
347
329
305
284
264
245
233
220
202
179
168
158
146
135
124
112
105
97
83
64
62
53
42
33
24
14
10
2
-10
-24
-24
-31
-36
-39
-42
-45
-40
-43
-51
-58
-52
-52
-50
-48
-46
-43
-37
-37
-44
-48
-43
-46
-46
-46
-46
-44
-40
-43
-53
-55
-53
-57
-58
-58
-59
-54
-51
-52
-58
-53
-45
-41
-36
-30
-24
-12
-3
1
-3
11
17
20
25
29
32
39
42
42
38
49
52
57
63
68
74
86
91
92
94
108
116
126
137
146
157
169
175
175
177
188
189
193
196
197
201
205
202
193
191
193
190
190
191
191
198
204
204
200
206
213
217
224
232
239
253
262
266
262
276
281
285
289
292
295
302
304
301
295
304
304
304
306
306
308
315
315
311
309
317
320
324
331
337
346
358
364
365
371
386
395
406
420
432
448
463
472
473
485
499
508
520
531
541
553
563
566
561
562
564
560
556
552
547
548
543
532
515
514
507
498
492
487
481
480
476
468
454
456
447
438
430
421
411
407
396
381
367
363
354
346
340
332
328
328
323
313
310
315
314
314
315
315
319
324
323
315
318
323
323
324
322
317
314
307
294
274
261
247
229
212
193
172
155
129
95
51
20
-23
-73
-127
-187
-251
-314
-385
-463
-546
-613
-693
-775
-859
-949
-1043
-1138
-1242
-1355
-1473
-1590
-1722
-1861
-2009
-2165
-2325
-2486
-2655
-2831
-3002
-3164
-3331
-3491
-3645
-3790
-3921
-4039
-4149
-4251
-4327
-4387
-4436
-4469
-4486
-4488
-4473
-4447
-4416
-4381
-4331
-4276
-4219
-4155
-4084
-4004
-3903
-3791
-3661
-3513
-3329
-3132
-2922
-2698
-2468
-2234
-1994
-1762
-1540
-1330
-1110
-910
-718
-535
-361
-196
-34
115
250
381
515
636
752
861
959
1051
1134
1199
1247
1289
1326
1345
1355
1356
1346
1333
1311
1275
1226
1183
1136
1079
1022
963
902
846
789
730
669
624
580
540
506
476
449
433
416
398
380
381
379
382
389
398
408
426
436
442
443
463
473
483
494
504
515
527
533
535
537
547
550
553
558
561
568
577
579
575
577
586
589
593
599
604
614
623
626
624
633
642
646
650
655
657
662
666
665
657
661
661
658
656
652
647
649
643
634
620
620
616
612
609
607
605
610
606
597
585
591
588
585
584
582
580
579
573
561
550
547
536
526
516
505
497
491
477
457
443
435
421
410
400
391
388
384
377
364
364
365
362
362
364
365
370
373
372
364
369
369
367
365
363
358
358
353
343
330
329
321
314
309
303
297
300
297
290
283
294
296
300
306
311
316
322
320
313
306
308
301
294
288
279
272
267
254
235
222
214
200
189
179
169
165
160
149
133
128
125
119
116
114
112
115
117
114
103
108
106
100
95
88
80
77
68
54
36
30
16
2
-11
-25
-40
-47
-61
-80
-98
-101
-112
-120
-126
-131
-134
-134
-138
-146
-149
-141
-140
-138
-134
-131
-126
-120
-122
-130
-131
-128
-129
-128
-126
-125
-118
-112
-112
-117
-111
-102
-97
-88
-78
-67
-50
-35
-25
-22
-1
12
25
41
56
71
89
102
110
113
127
133
137
142
145
148
157
158
154
149
157
157
159
161
163
167
173
175
170
169
178
178
180
183
184
187
189
184
171
166
163
154
145
134
118
104
85
57
22
-6
-33
-65
-97
-130
-165
-195
-230
-271
-319
-349
-387
-425
-461
-496
-531
-560
-594
-631
-672
-698
-732
-764
-793
-822
-850
-870
-895
-924
-952
-967
-988
-1005
-1021
-1036
-1047
-1054
-1065
-1081
-1092
-1093
-1101
-1106
-1110
-1115
-1117
-1118
-1125
-1139
-1144
-1144
-1150
-1154
-1157
-1160
-1158
-1156
-1158
-1164
-1160
-1155
-1151
-1146
-1140
-1136
-1125
-1121
-1121
-1130
-1120
-1118
-1117
-1115
-1114
-1114
-1109
-1109
-1114
-1123
-1116
-1118
-1119
-1117
-1117
-1115
-1108
-1107
-1112
-1115
-1108
-1107
-1103
-1098
-1093
-1084
-1072
-1066
-1066
-1064
-1053
-1052
-1049
-1046
-1045
-1042
-1038
-1042
-1053
-1053
-1052
-1056
-1060
-1064
-1070
-1072
-1075
-1082
-1093
-1094
-1092
-1093
-1092
-1090
-1090
-1082
-1080
-1083
-1092
-1084
-1083
-1083
-1081
-1080
-1080
-1076
-1078
-1086
-1100
-1095
-1101
-1106
-1108
-1111
-1114
-1111
-1113
-1118
-1120
-1110
-1104
-1093
-1078
-1063
-1042
-1018
-998
-982
-960
-929
-906
-881
-855
-829
-798
-767
-743
-725
-698
-669
-646
-622
-597
-573
-545
-517
-494
-475
-447
-419
-391
-360
-328
-296
-255
-219
-187
-159
-113
-72
-32
9
50
90
135
174
208
235
280
313
345
377
408
438
471
499
521
544
575
599
626
654
681
711
745
771
792
817
850
877
905
933
960
991
1021
1043
1058
1082
1107
1125
1145
1165
1182
1202
1221
1234
1241
1257
1270
1280
1291
1301
1310
1327
1338
1344
1346
1362
1372
1381
1392
1403
1412
1427
1436
1440
1440
1458
1465
1473
1481
1488
1493
1502
1504
1502
1501
1509
1510
1512
1515
1517
1522
1528
1527
1520
1518
1523
1522
1524
1526
1527
1532
1536
1534
1525
1528
1532
1531
1533
1536
1539
1546
1552
1554
1550
1558
1563
1565
1569
1572
1572
1580
1581
1576
1567
1571
1569
1565
1562
1559
1555
1559
1555
1548
1536
1545
1543
1544
1547
1550
1555
1563
1567
1567
1568
1579
1581
1584
1587
1587
1587
1587
1578
1560
1545
1536
1517
1499
1480
1457
1439
1418
1391
1357
1334
1312
1287
1265
1243
1220
1202
1182
1158
1128
1111
1089
1067
1046
1025
1003
988
967
941
910
891
866
840
814
788
761
742
717
686
651
635
609
584
561
538
518
502
482
460
441
434
419
408
398
388
380
376
365
349
339
337
327
320
314
306
301
294
280
259
249
241
228
216
205
192
181
169
153
129
122
109
97
88
81
73
74
69
62
51
53
49
45
43
40
37
41
36
26
12
12
3
-6
-14
-22
-28
-31
-38
-50
-57
-54
-58
-60
-60
-61
-58
-54
-55
-61
-60
-53
-53
-50
-46
-44
-37
-31
-31
-36
-29
-22
-18
-13
-9
-6
1
5
4
-3
7
10
13
18
23
26
35
39
38
32
39
40
41
44
47
50
62
65
62
57
66
67
70
74
77
82
89
91
86
83
89
86
85
84
82
84
87
84
74
72
75
73
72
72
71
75
79
77
70
74
81
83
87
91
93
99
102
98
87
93
91
87
83
78
70
66
56
42
23
18
6
-6
-15
-25
-34
-35
-45
-58
-71
-72
-79
-84
-88
-92
-93
-92
-98
-109
-118
-118
-126
-133
-139
-146
-149
-149
-157
-170
-174
-175
-180
-183
-186
-188
-185
-181
-182
-188
-185
-180
-177
-173
-169
-165
-154
-147
-144
-149
-135
-129
-123
-116
-110
-105
-96
-92
-92
-97
-86
-84
-82
-79
-77
-75
-68
-70
-76
-81
-76
-76
-74
-69
-65
-59
-48
-44
-45
-43
-30
-23
-13
-1
11
28
45
57
63
78
97
110
126
141
156
175
193
204
211
225
241
252
264
277
289
309
324
334
338
360
375
389
404
418
432
451
463
471
472
488
491
492
492
488
482
480
470
454
438
432
419
409
400
391
384
380
370
355
343
340
329
321
313
304
299
294
284
266
259
255
245
237
228
217
209
200
185
163
149
135
118
103
88
72
64
51
33
9
1
-13
-28
-41
-56
-69
-78
-91
-108
-130
-133
-145
-156
-164
-173
-180
-182
-189
-201
-210
-210
-216
-222
-226
-233
-238
-241
-251
-266
-276
-278
-286
-293
-298
-303
-304
-305
-312
-325
-327
-326
-329
-327
-324
-321
-313
-306
-302
-302
-293
-284
-277
-268
-259
-252
-237
-229
-228
-232
-222
-220
-220
-219
-219
-219
-213
-214
-218
-227
-217
-219
-219
-217
-215
-212
-203
-198
-196
-191
-177
-168
-157
-144
-133
-119
-102
-91
-87
-78
-61
-53
-44
-35
-28
-17
-7
-4
-8
0
10
15
23
31
38
50
60
65
66
77
87
96
107
118
127
144
154
158
156
167
173
176
181
184
186
193
192
184
170
175
168
163
159
155
153
155
154
148
146
153
153
154
156
158
162
169
170
164
165
171
169
167
166
161
161
159
151
136
134
133
126
122
117
112
110
107
100
88
90
88
86
85
84
82
86
85
80
71
75
73
72
73
73
73
79
78
70
59
64
58
52
48
43
39
38
32
21
11
11
3
-2
-6
-11
-13
-12
-18
-30
-34
-32
-37
-40
-42
-45
-42
-40
-44
-53
-51
-47
-49
-49
-50
-52
-50
-49
-53
-62
-58
-59
-62
-63
-66
-71
-72
-78
-90
-105
-107
-114
-121
-126
-131
-137
-135
-142
-155
-171
-171
-181
-189
-195
-203
-208
-211
-220
-233
-243
-244
-253
-259
-264
-270
-271
-270
-274
-283
-285
-281
-282
-282
-280
-278
-270
-263
-261
-264
-255
-244
-235
-223
-209
-193
-171
-149
-131
-118
-89
-66
-44
-20
4
27
56
80
100
116
145
168
191
214
235
255
282
300
311
321
346
362
379
398
416
435
456
470
478
488
505
512
519
522
522
522
520
508
487
471
457
436
414
392
367
346
322
292
255
226
199
168
138
109
79
55
30
3
-31
-44
-64
-82
-97
-111
-124
-131
-141
-153
-168
-170
-179
-187
-194
-203
-212
-214
-225
-239
-254
-254
-262
-268
-273
-278
-280
-279
-284
-292
-296
-289
-289
-284
-278
-272
-263
-252
-248
-251
-246
-237
-234
-229
-224
-221
-212
-205
-205
-211
-208
-205
-206
-205
-203
-201
-192
-186
-184
-190
-178
-174
-171
-165
-161
-157
-148
-143
-143
-147
-136
-135
-133
-129
-125
-122
-113
-111
-114
-116
-108
-105
-102
-98
-94
-88
-78
-74
-75
-72
-59
-53
-45
-36
-29
-20
-11
-9
-14
-9
-2
-1
0
0
-3
-2
-4
-13
-28
-36
-41
-50
-56
-62
-70
-75
-87
-107
-139
-157
-189
-226
-269
-318
-373
-427
-489
-556
-629
-686
-752
-818
-883
-949
-1017
-1082
-1156
-1237
-1323
-1404
-1497
-1595
-1699
-1809
-1925
-2043
-2175
-2318
-2462
-2601
-2751
-2902
-3051
-3199
-3340
-3476
-3614
-3755
-3881
-3998
-4114
-4220
-4316
-4404
-4478
-4542
-4602
-4656
-4694
-4723
-4749
-4768
-4780
-4784
-4768
-4740
-4695
-4633
-4527
-4404
-4258
-4090
-3906
-3709
-3498
-3286
-3075
-2869
-2650
-2448
-2249
-2054
-1864
-1677
-1489
-1310
-1140
-975
-810
-660
-519
-387
-263
-142
-23
86
185
284
389
485
582
678
771
865
953
1028
1088
1149
1203
1243
1277
1305
1325
1343
1355
1357
1352
1352
1351
1345
1339
1331
1319
1312
1294
1269
1236
1218
1193
1168
1144
1120
1097
1079
1057
1031
1001
991
973
957
946
937
929
927
921
911
903
905
902
902
904
907
914
925
930
929
934
947
952
959
967
973
982
991
992
986
991
997
997
999
1001
1001
1006
1010
1010
1006
1012
1019
1024
1031
1038
1044
1058
1066
1070
1070
1085
1095
1105
1116
1127
1139
1155
1165
1170
1171
1192
1202
1214
1227
1239
1252
1267
1277
1281
1285
1298
1301
1305
1308
1308
1309
1309
1300
1283
1269
1260
1241
1221
1200
1174
1151
1127
1095
1056
1028
1000
967
937
908
878
853
828
799
766
743
718
692
667
642
615
595
569
538
503
483
457
431
407
383
360
343
320
293
263
254
235
219
205
192
181
174
163
148
135
132
121
114
108
101
97
94
85
69
58
53
43
34
26
16
11
6
-6
-24
-31
-35
-44
-49
-52
-56
-56
-56
-60
-71
-68
-70
-73
-76
-78
-83
-80
-84
-94
-108
-109
-118
-127
-137
-147
-158
-161
-171
-186
-204
-204
-213
-221
-226
-232
-235
-236
-241
-250
-255
-250
-251
-250
-247
-245
-240
-233
-232
-238
-238
-232
-232
-230
-227
-225
-219
-215
-217
-226
-225
-224
-226
-226
-225
-225
-220
-217
-219
-227
-220
-219
-219
-217
-214
-213
-204
-201
-203
-208
-201
-201
-201
-202
-204
-205
-200
-203
-212
-223
-218
-223
-226
-230
-235
-238
-239
-245
-257
-267
-267
-274
-280
-284
-289
-292
-292
-299
-312
-317
-314
-317
-316
-314
-313
-308
-304
-306
-315
-314
-311
-313
-313
-313
-316
-315
-317
-324
-338
-334
-337
-340
-340
-338
-336
-326
-320
-317
-318
-305
-299
-291
-281
-272
-262
-245
-236
-233
-233
-219
-215
-211
-208
-206
-203
-199
-200
-206
-209
-204
-208
-212
-218
-226
-232
-237
-248
-266
-276
-280
-291
-299
-307
-315
-317
-321
-329
-342
-343
-342
-342
-341
-339
-338
-332
-331
-336
-348
-344
-348
-353
-357
-362
-368
-370
-377
-388
-403
-403
-411
-417
-422
-426
-429
-425
-427
-434
-441
-435
-435
-433
-429
-425
-417
-407
-402
-403
-401
-390
-388
-384
-379
-375
-369
-361
-360
-366
-362
-355
-353
-347
-340
-334
-321
-308
-299
-293
-276
-257
-239
-219
-199
-178
-151
-127
-107
-93
-60
-36
-14
11
33
54
79
97
111
119
142
155
168
182
195
207
224
231
232
231
238
236
233
228
220
213
208
194
174
156
145
125
106
87
67
49
31
7
-24
-46
-65
-90
-112
-134
-156
-172
-189
-209
-232
-246
-256
-268
-277
-284
-292
-290
-292
-298
-309
-301
-299
-298
-294
-291
-288
-280
-276
-277
-283
-272
-271
-270
-267
-265
-262
-255
-255
-259
-261
-252
-249
-244
-237
-230
-219
-205
-196
-192
-184
-167
-157
-145
-131
-118
-101
-82
-70
-64
-49
-31
-18
-2
13
26
44
59
70
75
87
99
108
118
128
137
154
166
173
175
193
204
215
227
239
250
265
276
282
283
303
312
323
336
348
360
376
385
389
395
410
418
427
437
445
454
464
468
464
464
472
472
474
478
479
485
491
490
481
483
486
486
488
492
496
505
514
518
518
527
536
542
549
557
563
576
582
583
577
587
589
589
589
588
586
588
585
577
564
570
566
562
560
558
556
559
557
553
551
559
562
567
573
579
587
597
600
597
598
608
609
611
614
614
616
618
612
599
597
597
592
591
590
589
591
592
587
577
577
575
571
568
565
561
564
560
550
534
531
521
508
496
482
467
456
439
416
388
379
358
338
319
299
282
269
252
233
217
210
198
190
184
177
174
174
168
157
154
160
158
159
159
158
161
162
156
142
139
137
130
125
121
116
115
112
105
93
93
90
86
85
84
83
91
93
90
82
87
86
85
85
85
84
90
88
82
71
78
73
70
68
66
65
68
67
62
61
69
69
71
75
78
84
92
94
91
96
108
114
123
134
143
158
173
183
188
205
224
239
257
276
295
318
339
357
368
393
413
432
452
470
486
508
522
530
532
544
549
552
554
554
552
554
545
529
508
502
485
468
451
433
415
399
377
350
325
309
284
258
232
203
176
150
117
77
43
14
-23
-59
-96
-137
-175
-217
-267
-326
-379
-435
-501
-569
-642
-719
-795
-874
-958
-1050
-1128
-1214
-1306
-1402
-1503
-1613
-1723
-1844
-1975
-2116
-2253
-2405
-2567
-2735
-2912
-3094
-3273
-3462
-3656
-3851
-4028
-4209
-4380
-4540
-4688
-4820
-4936
-5042
-5138
-5216
-5268
-5310
-5333
-5336
-5323
-5291
-5244
-5193
-5140
-5073
-4995
-4915
-4824
-4720
-4601
-4455
-4287
-4101
-3900
-3670
-3425
-3174
-2917
-2655
-2394
-2129
-1870
-1622
-1389
-1148
-924
-711
-507
-315
-135
42
207
362
509
663
804
938
1063
1176
1275
1367
1438
1491
1532
1575
1601
1617
1625
1624
1618
1609
1587
1555
1521
1494
1456
1420
1384
1349
1317
1287
1253
1215
1187
1166
1142
1123
1109
1097
1093
1092
1088
1082
1087
1096
1104
1115
1127
1140
1159
1175
1187
1192
1216
1232
1247
1262
1277
1289
1305
1317
1323
1326
1341
1347
1351
1354
1354
1352
1355
1349
1337
1325
1324
1316
1309
1302
1295
1289
1285
1275
1259
1246
1243
1232
1222
1213
1202
1194
1187
1173
1151
1139
1130
1115
1104
1093
1081
1074
1066
1052
1032
1022
1014
1002
991
981
971
967
958
944
923
920
907
894
881
867
852
841
825
805
781
773
756
739
724
709
693
684
669
650
633
626
614
604
595
584
577
573
563
548
536
534
524
515
506
497
489
481
467
445
433
424
409
397
385
372
365
357
345
329
323
318
313
311
312
312
321
324
324
317
328
331
334
337
339
341
346
347
343
336
345
343
342
342
341
342
347
347
342
339
347
350
355
362
368
377
390
397
399
405
420
428
437
446
454
463
470
469
459
457
456
448
439
427
412
397
378
352
319
293
266
234
202
168
132
102
65
22
-27
-59
-98
-136
-173
-208
-243
-272
-306
-344
-386
-408
-441
-471
-497
-522
-546
-564
-587
-612
-634
-645
-661
-674
-686
-696
-704
-706
-714
-726
-731
-726
-727
-725
-722
-719
-712
-706
-705
-712
-708
-702
-702
-699
-697
-697
-694
-693
-697
-706
-705
-704
-706
-705
-704
-705
-698
-696
-700
-708
-701
-700
-700
-698
-698
-697
-692
-693
-700
-711
-704
-709
-713
-715
-718
-719
-716
-718
-725
-729
-725
-727
-726
-725
-725
-722
-717
-718
-724
-725
-717
-717
-715
-713
-714
-710
-705
-707
-715
-710
-703
-701
-697
-692
-689
-682
-676
-674
-676
-668
-661
-657
-652
-649
-647
-638
-635
-639
-647
-642
-642
-642
-640
-639
-638
-631
-630
-635
-644
-633
-633
-630
-626
-622
-616
-609
-606
-608
-608
-599
-596
-592
-586
-582
-574
-565
-561
-563
-560
-550
-549
-546
-543
-541
-535
-528
-528
-535
-529
-521
-518
-512
-506
-500
-490
-481
-477
-480
-470
-466
-467
-468
-472
-479
-480
-488
-502
-519
-524
-535
-545
-554
-564
-575
-579
-591
-608
-628
-629
-640
-649
-655
-661
-665
-667
-672
-682
-689
-686
-690
-692
-691
-690
-686
-681
-683
-691
-693
-689
-693
-694
-696
-698
-696
-695
-700
-711
-710
-708
-711
-711
-709
-708
-702
-697
-696
-701
-691
-686
-681
-674
-665
-658
-643
-633
-627
-624
-607
-597
-587
-575
-564
-554
-536
-525
-519
-516
-495
-483
-470
-454
-438
-420
-400
-385
-373
-359
-335
-318
-297
-275
-254
-230
-202
-180
-164
-140
-110
-86
-57
-27
3
39
75
106
130
165
202
234
269
304
337
375
410
440
463
502
533
564
597
629
661
699
733
764
793
835
871
907
944
980
1016
1060
1096
1127
1156
1199
1233
1267
1302
1335
1369
1404
1431
1451
1473
1503
1524
1545
1565
1581
1598
1613
1618
1614
1614
1616
1608
1600
1589
1574
1561
1543
1515
1479
1449
1419
1383
1347
1312
1278
1248
1215
1178
1133
1107
1074
1041
1012
984
957
937
913
886
856
841
820
800
783
767
753
749
739
725
713
715
711
709
708
706
706
709
707
699
695
701
698
696
695
692
691
691
684
672
667
665
657
652
649
645
646
646
641
632
634
638
640
644
649
653
662
668
667
657
666
665
664
664
664
662
665
662
655
644
647
641
637
633
629
626
631
628
621
614
618
616
616
616
615
617
622
621
615
612
620
620
622
624
625
628
632
630
621
621
625
623
622
621
618
621
622
618
608
607
607
604
602
600
597
599
597
590
575
580
577
574
574
574
574
579
579
576
568
576
574
574
575
576
576
582
580
574
567
570
567
564
562
560
560
563
561
553
550
556
554
554
555
556
560
566
566
559
562
568
567
568
570
569
573
574
570
561
561
562
559
557
556
554
558
556
549
534
538
536
532
531
530
529
532
532
527
518
527
526
527
531
533
536
543
544
538
533
536
533
530
527
524
522
523
518
507
499
500
493
488
484
478
477
476
469
456
453
454
450
448
447
445
448
450
448
441
442
443
441
440
439
436
440
437
428
413
414
410
404
401
397
392
392
387
377
363
369
364
361
360
360
361
368
368
365
363
370
371
373
377
379
384
391
391
385
384
389
387
386
386
385
390
395
393
385
389
396
398
403
408
414
423
433
438
440
451
461
468
478
487
495
511
521
525
524
538
546
552
560
566
571
581
585
584
578
590
591
592
593
592
591
591
584
571
557
550
533
514
493
467
440
412
376
332
292
257
215
173
133
91
52
13
-31
-82
-122
-160
-202
-240
-276
-311
-339
-367
-397
-430
-451
-472
-493
-511
-527
-542
-548
-558
-571
-589
-593
-602
-612
-620
-629
-639
-642
-652
-666
-685
-685
-695
-704
-711
-719
-726
-729
-735
-745
-750
-744
-744
-739
-733
-725
-713
-699
-690
-686
-675
-656
-642
-625
-607
-590
-569
-549
-537
-533
-517
-502
-491
-478
-465
-454
-440
-427
-420
-420
-407
-398
-390
-381
-372
-364
-347
-336
-329
-325
-309
-299
-289
-277
-266
-256
-239
-230
-226
-226
-209
-203
-197
-190
-184
-176
-166
-160
-159
-156
-143
-139
-133
-128
-124
-118
-111
-109
-114
-112
-102
-98
-91
-84
-78
-67
-57
-53
-55
-46
-34
-27
-16
-3
9
25
40
49
52
70
82
93
105
116
125
139
146
148
144
151
152
152
152
152
152
159
157
151
142
149
146
145
145
146
149
156
158
157
158
169
172
176
181
184
191
199
201
196
198
205
205
206
207
206
209
210
206
197
198
202
203
206
209
212
220
226
228
224
237
243
248
255
262
266
275
279
277
270
274
271
267
263
259
253
254
245
231
216
214
205
198
193
188
187
189
186
179
175
182
180
181
183
184
187
193
193
186
187
193
192
193
194
193
198
201
198
189
191
194
193
193
193
192
196
198
194
183
191
192
192
194
196
196
201
201
196
187
192
190
188
188
187
185
190
187
178
169
172
168
165
164
163
165
169
168
162
159
166
164
164
166
167
173
181
184
181
186
196
201
208
215
222
233
243
247
247
255
265
270
278
285
290
301
308
309
304
316
319
321
324
326
326
330
329
324
315
320
316
313
312
310
308
311
305
293
280
277
265
254
241
225
209
193
168
135
104
81
49
18
-12
-43
-71
-97
-129
-165
-192
-213
-238
-258
-275
-290
-299
-307
-319
-335
-342
-346
-352
-357
-360
-364
-361
-362
-369
-382
-377
-380
-384
-389
-395
-401
-404
-411
-423
-439
-439
-449
-457
-463
-469
-474
-473
-477
-485
-490
-483
-482
-476
-469
-460
-449
-435
-428
-427
-423
-410
-405
-397
-388
-381
-373
-364
-363
-369
-365
-359
-358
-354
-349
-345
-335
-326
-321
-321
-312
-302
-295
-286
-277
-267
-250
-237
-230
-229
-211
-201
-193
-184
-176
-169
-158
-153
-153
-159
-147
-147
-145
-141
-137
-133
-123
-119
-119
-116
-103
-96
-87
-78
-70
-59
-46
-41
-42
-39
-30
-30
-29
-29
-31
-30
-29
-35
-46
-46
-43
-45
-46
-50
-57
-64
-76
-98
-131
-162
-200
-247
-297
-351
-407
-458
-515
-579
-649
-704
-768
-834
-901
-970
-1042
-1113
-1193
-1283
-1384
-1472
-1578
-1688
-1804
-1929
-2060
-2192
-2336
-2488
-2643
-2790
-2941
-3089
-3234
-3377
-3514
-3645
-3778
-3912
-4033
-4138
-4242
-4334
-4416
-4489
-4547
-4598
-4648
-4700
-4734
-4759
-4777
-4780
-4764
-4725
-4658
-4567
-4456
-4327
-4168
-3993
-3809
-3614
-3413
-3210
-2998
-2795
-2603
-2420
-2229
-2047
-1870
-1693
-1519
-1347
-1174
-1016
-872
-741
-599
-476
-357
-245
-139
-38
63
155
241
329
426
515
604
690
771
848
921
979
1026
1073
1121
1157
1191
1221
1244
1268
1288
1300
1303
1316
1328
1335
1341
1346
1348
1350
1350
1343
1329
1326
1318
1307
1298
1289
1277
1273
1262
1246
1227
1221
1212
1204
1200
1197
1195
1202
1203
1200
1196
1210
1215
1223
1233
1243
1255
1268
1275
1276
1276
1284
1283
1284
1285
1284
1285
1287
1283
1272
1267
1268
1262
1257
1250
1240
1233
1224
1208
1184
1169
1154
1132
1109
1084
1054
1026
993
954
908
875
838
800
765
730
695
667
636
601
564
541
515
491
469
449
430
418
398
373
346
337
319
304
291
279
268
261
249
233
220
217
207
199
193
187
183
182
175
161
154
153
145
139
134
129
130
130
125
115
116
118
116
117
118
119
124
128
129
123
133
137
140
145
147
148
154
154
150
144
150
151
152
155
157
160
170
171
167
162
172
175
178
183
187
192
198
199
194
190
196
194
193
193
192
193
195
191
179
176
177
172
170
169
167
171
175
175
170
177
185
189
195
202
209
221
231
235
231
244
249
251
254
256
256
260
260
254
245
247
242
237
232
227
221
223
217
206
196
201
199
200
204
208
215
226
233
234
240
255
263
273
284
292
303
314
317
315
319
327
328
332
336
340
348
355
356
352
358
366
370
375
381
386
398
406
409
404
417
421
422
425
425
424
425
422
412
398
397
387
377
366
354
340
334
319
301
285
281
272
265
260
255
254
255
252
244
241
248
247
249
251
251
253
255
249
236
230
228
219
211
204
196
192
186
175
158
149
143
133
125
118
111
111
106
97
81
84
79
74
70
68
65
66
62
54
41
42
32
22
13
2
-9
-15
-27
-43
-58
-61
-72
-80
-89
-99
-106
-110
-120
-136
-148
-151
-163
-173
-184
-196
-205
-213
-228
-249
-260
-268
-281
-292
-302
-314
-322
-333
-349
-371
-385
-399
-417
-432
-447
-464
-475
-492
-515
-547
-562
-585
-611
-636
-662
-688
-711
-738
-770
-807
-827
-856
-883
-907
-929
-950
-964
-983
-1005
-1024
-1034
-1049
-1062
-1073
-1084
-1092
-1096
-1106
-1121
-1131
-1132
-1140
-1145
-1150
-1156
-1157
-1157
-1163
-1176
-1176
-1174
-1175
-1173
-1171
-1170
-1164
-1158
-1157
-1160
-1153
-1144
-1137
-1128
-1119
-1110
-1095
-1086
-1083
-1086
-1073
-1067
-1062
-1055
-1048
-1042
-1031
-1025
-1024
-1027
-1012
-1008
-1001
-993
-984
-974
-959
-950
-944
-936
-919
-908
-895
-881
-867
-851
-831
-818
-812
-800
-781
-771
-759
-746
-736
-721
-707
-698
-696
-682
-665
-653
-640
-625
-611
-593
-574
-560
-548
-526
-502
-480
-455
-429
-405
-372
-346
-325
-308
-276
-250
-225
-198
-173
-149
-120
-98
-83
-73
-46
-30
-13
7
26
46
70
88
102
117
142
160
181
203
225
249
276
297
312
332
358
375
394
413
430
450
469
481
487
503
520
532
546
560
572
589
605
617
625
643
660
676
693
711
728
752
770
784
793
816
834
851
870
888
905
928
944
955
963
989
1004
1021
1040
1058
1078
1100
1117
1130
1144
1168
1186
1205
1225
1244
1265
1287
1302
1309
1323
1342
1352
1364
1375
1384
1398
1410
1415
1413
1421
1429
1432
1435
1437
1437
1440
1442
1437
1426
1425
1420
1413
1405
1397
1387
1384
1375
1362
1345
1342
1334
1326
1320
1314
1308
1310
1304
1294
1282
1288
1284
1281
1281
1280
1280
1281
1277
1269
1261
1262
1256
1251
1247
1241
1237
1234
1225
1209
1199
1195
1184
1176
1169
1160
1156
1151
1141
1124
1118
1113
1103
1096
1089
1082
1077
1071
1060
1041
1035
1023
1008
994
978
960
947
927
903
874
856
832
808
785
760
734
715
687
654
617
596
564
532
500
465
431
398
358
312
267
230
186
143
102
59
21
-16
-58
-106
-145
-175
-209
-238
-265
-292
-312
-332
-357
-387
-404
-418
-435
-449
-461
-472
-478
-485
-495
-511
-510
-515
-521
-525
-528
-533
-531
-534
-542
-553
-552
-559
-565
-570
-577
-584
-585
-593
-606
-621
-621
-630
-637
-643
-650
-655
-656
-661
-669
-675
-669
-670
-669
-666
-664
-658
-649
-647
-651
-647
-637
-634
-629
-623
-619
-611
-605
-606
-613
-610
-606
-606
-602
-598
-593
-582
-574
-571
-575
-561
-555
-549
-540
-531
-522
-510
-502
-498
-500
-488
-485
-481
-476
-471
-467
-456
-452
-454
-457
-448
-447
-446
-444
-443
-440
-434
-433
-437
-437
-427
-425
-421
-417
-413
-406
-398
-394
-396
-388
-376
-370
-361
-350
-342
-329
-318
-314
-315
-306
-296
-289
-280
-272
-265
-253
-246
-243
-248
-234
-229
-224
-217
-210
-203
-192
-185
-183
-185
-173
-169
-163
-155
-147
-139
-124
-115
-112
-109
-95
-87
-78
-68
-59
-48
-35
-28
-28
-25
-13
-10
-5
0
3
11
20
24
21
28
39
44
52
60
68
80
92
100
103
116
130
140
150
159
167
180
188
190
184
197
201
204
209
213
216
225
228
227
221
233
237
244
253
262
272
289
299
305
313
329
339
351
364
376
391
408
418
422
430
446
452
460
468
475
485
497
502
501
510
523
530
539
549
558
572
586
595
601
615
630
643
658
674
690
713
732
746
754
780
798
816
835
854
872
893
909
919
924
944
953
962
972
979
984
993
994
990
986
992
992
993
995
996
997
1001
998
988
982
982
974
968
961
953
948
943
931
913
905
898
886
875
864
850
840
827
809
783
763
740
711
682
652
620
595
563
527
484
459
427
397
368
340
312
290
264
235
202
189
165
144
123
103
82
65
43
16
-9
-24
-46
-64
-81
-97
-111
-120
-135
-155
-169
-173
-183
-189
-193
-197
-197
-197
-203
-216
-218
-218
-222
-224
-226
-229
-228
-228
-233
-244
-245
-249
-257
-263
-269
-276
-276
-281
-291
-306
-307
-313
-320
-325
-330
-335
-333
-336
-342
-352
-342
-343
-342
-340
-337
-334
-329
-329
-333
-335
-327
-326
-324
-322
-321
-319
-315
-317
-325
-327
-321
-322
-320
-317
-315
-309
-304
-306
-315
-311
-307
-307
-304
-299
-294
-287
-280
-278
-282
-275
-270
-268
-264
-260
-256
-246
-242
-243
-250
-245
-245
-247
-248
-249
-251
-246
-247
-252
-262
-253
-255
-257
-257
-258
-258
-254
-253
-256
-255
-245
-241
-234
-226
-220
-211
-201
-198
-201
-199
-189
-188
-185
-183
-182
-178
-174
-177
-186
-183
-178
-176
-171
-166
-160
-152
-144
-141
-143
-131
-122
-115
-107
-98
-91
-77
-69
-67
-69
-59
-55
-53
-50
-47
-44
-34
-32
-36
-45
-36
-39
-40
-40
-40
-38
-34
-35
-40
-42
-34
-35
-34
-31
-29
-23
-15
-11
-13
-7
5
10
18
25
30
39
46
46
38
41
46
46
49
51
53
58
61
60
52
60
62
64
69
73
76
85
90
90
86
96
99
104
111
117
124
137
142
142
139
152
155
160
166
172
179
190
196
197
200
212
216
223
230
237
247
260
267
267
274
286
291
297
304
309
318
326
329
326
333
339
339
338
335
329
326
319
306
285
280
268
255
244
231
218
209
195
176
154
145
129
113
99
84
70
63
47
26
4
-4
-20
-34
-48
-63
-75
-85
-102
-124
-143
-153
-172
-190
-208
-227
-243
-257
-278
-306
-325
-341
-363
-383
-402
-421
-433
-445
-461
-481
-489
-494
-501
-505
-508
-511
-507
-505
-508
-516
-504
-499
-493
-485
-476
-467
-454
-443
-435
-430
-410
-396
-381
-363
-346
-329
-304
-287
-275
-265
-243
-227
-210
-192
-175
-155
-134
-120
-111
-100
-80
-68
-54
-40
-27
-11
4
13
14
22
32
34
39
43
45
53
59
61
57
63
70
75
82
89
97
110
120
126
124
141
150
159
169
179
188
201
208
212
210
224
227
231
235
237
238
245
243
236
229
233
230
228
226
224
223
225
222
213
209
215
213
215
219
223
231
240
243
241
248
259
263
269
276
280
290
297
298
293
296
299
297
298
298
297
302
303
298
287
294
293
291
290
288
287
290
289
283
274
281
279
278
277
274
272
275
270
260
251
251
245
240
236
230
227
227
222
211
205
209
205
204
205
204
208
212
211
203
206
212
214
217
221
224
232
238
238
233
236
239
238
239
240
241
248
250
245
235
241
241
240
241
243
246
254
258
258
253
265
266
268
271
274
276
283
285
283
282
292
294
298
304
308
315
325
329
327
331
343
346
351
356
358
364
369
366
357
357
358
355
353
352
349
351
351
345
335
332
327
319
312
303
292
286
271
251
224
211
192
172
152
130
107
89
65
34
-1
-18
-47
-74
-98
-123
-146
-164
-186
-211
-235
-248
-267
-284
-300
-317
-331
-342
-361
-385
-404
-416
-435
-452
-469
-487
-500
-512
-529
-553
-564
-573
-586
-595
-602
-609
-612
-614
-619
-628
-625
-621
-618
-612
-604
-597
-582
-574
-570
-571
-558
-551
-547
-543
-541
-542
-539
-546
-559
-578
-578
-589
-598
-605
-613
-622
-630
-646
-669
-694
-714
-747
-783
-825
-873
-924
-976
-1037
-1104
-1165
-1219
-1282
-1346
-1411
-1479
-1546
-1618
-1698
-1790
-1874
-1963
-2062
-2165
-2273
-2388
-2507
-2634
-2770
-2918
-3058
-3207
-3361
-3513
-3664
-3814
-3955
-4100
-4247
-4395
-4527
-4659
-4787
-4907
-5020
-5124
-5213
-5300
-5384
-5462
-5513
-5568
-5618
-5659
-5692
-5710
-5708
-5689
-5648
-5579
-5472
-5348
-5198
-5028
-4843
-4644
-4435
-4226
-4021
-3809
-3593
-3389
-3187
-2988
-2795
-2599
-2405
-2219
-2044
-1865
-1693
-1534
-1379
-1230
-1087
-946
-810
-683
-565
-438
-316
-197
-77
43
159
278
387
486
574
666
746
820
889
951
1008
1065
1108
1140
1165
1204
1229
1254
1279
1301
1323
1346
1360
1368
1374
1389
1395
1401
1407
1411
1418
1425
1424
1417
1416
1420
1419
1422
1426
1430
1441
1452
1457
1457
1469
1482
1492
1504
1517
1529
1546
1562
1573
1578
1598
1611
1622
1634
1644
1651
1663
1669
1668
1664
1670
1669
1666
1664
1660
1655
1657
1651
1640
1629
1634
1631
1629
1628
1628
1628
1631
1628
1620
1614
1617
1613
1611
1610
1607
1607
1607
1600
1587
1581
1580
1573
1569
1567
1564
1567
1568
1564
1553
1554
1554
1551
1550
1549
1549
1554
1556
1554
1544
1551
1550
1548
1547
1546
1543
1545
1542
1534
1521
1519
1510
1499
1488
1475
1462
1455
1441
1422
1403
1399
1387
1376
1366
1354
1345
1338
1325
1307
1293
1287
1272
1259
1246
1231
1218
1206
1186
1160
1143
1129
1110
1092
1074
1054
1039
1021
997
966
944
923
898
874
849
823
800
771
735
690
661
621
579
537
492
446
405
361
314
266
234
197
162
130
100
72
53
30
4
-21
-33
-51
-67
-80
-94
-105
-113
-127
-145
-160
-164
-178
-189
-201
-214
-224
-234
-249
-271
-284
-293
-308
-320
-331
-343
-351
-359
-371
-388
-394
-397
-403
-406
-408
-411
-408
-411
-419
-436
-434
-441
-449
-455
-463
-472
-477
-486
-501
-520
-524
-538
-551
-562
-574
-585
-590
-602
-619
-635
-639
-649
-658
-665
-671
-675
-676
-683
-695
-703
-702
-711
-718
-726
-735
-742
-747
-758
-775
-782
-785
-793
-798
-803
-808
-807
-808
-811
-818
-815
-810
-808
-804
-800
-797
-786
-779
-778
-784
-772
-768
-763
-756
-750
-743
-733
-728
-728
-734
-724
-725
-724
-722
-721
-720
-713
-713
-717
-719
-712
-710
-707
-702
-697
-688
-675
-668
-665
-658
-642
-634
-623
-612
-602
-589
-575
-568
-567
-557
-544
-537
-529
-520
-512
-500
-488
-480
-478
-466
-454
-445
-435
-426
-417
-402
-393
-390
-393
-378
-369
-360
-350
-341
-331
-317
-309
-305
-305
-286
-278
-269
-257
-247
-237
-223
-217
-216
-214
-205
-202
-197
-192
-186
-178
-167
-162
-163
-159
-146
-141
-134
-124
-115
-101
-88
-81
-80
-70
-58
-53
-46
-40
-35
-28
-21
-19
-23
-18
-14
-12
-10
-7
-6
3
5
2
-6
1
2
2
3
4
5
11
12
9
2
14
14
16
18
19
21
25
22
15
8
10
6
3
0
-4
-6
-6
-13
-27
-35
-37
-45
-51
-55
-58
-57
-54
-55
-63
-57
-49
-44
-36
-26
-14
2
19
32
40
58
74
86
101
114
125
143
153
158
157
170
177
183
190
195
202
215
222
225
225
244
252
261
273
283
293
306
313
315
318
331
337
345
354
361
369
379
380
374
371
373
367
361
354
346
341
333
317
292
278
262
242
222
202
181
162
143
119
90
74
56
38
23
9
-5
-10
-21
-35
-54
-58
-67
-76
-82
-88
-93
-90
-92
-99
-108
-98
-99
-99
-97
-95
-90
-83
-81
-83
-82
-72
-68
-62
-54
-48
-39
-27
-22
-21
-14
2
10
21
33
43
59
72
79
78
88
100
107
115
124
132
143
151
154
150
161
165
169
175
181
186
197
203
205
204
215
221
226
233
239
246
259
265
265
262
274
276
277
277
277
276
278
273
262
253
253
244
237
230
222
217
214
206
192
185
185
179
177
174
171
174
176
172
163
164
167
167
169
171
173
179
182
180
170
176
177
176
178
179
179
185
187
184
179
187
190
194
200
208
216
232
240
243
244
260
268
277
287
296
307
320
328
330
334
348
353
358
363
367
373
379
379
371
371
376
375
376
377
376
381
385
383
377
383
391
396
404
413
421
434
443
448
445
459
466
471
478
483
486
492
493
488
479
482
479
475
474
472
470
476
475
469
462
469
469
472
477
482
490
500
506
506
510
522
527
533
541
547
556
565
566
561
563
569
568
568
568
567
572
575
573
567
571
578
581
586
591
597
608
616
620
616
631
639
646
655
663
670
679
684
683
678
687
687
687
689
690
690
696
694
687
680
685
683
684
686
688
692
698
698
691
688
695
694
694
696
697
702
709
709
704
705
710
708
707
707
705
707
707
701
690
686
684
677
672
667
662
663
660
652
638
642
638
634
632
629
625
625
620
611
597
601
595
590
586
582
577
577
568
553
537
529
511
493
474
453
434
417
394
364
339
322
298
277
256
235
217
198
173
140
116
94
68
43
20
-5
-25
-47
-74
-106
-130
-152
-177
-199
-221
-243
-258
-277
-300
-329
-339
-356
-373
-387
-401
-413
-420
-431
-443
-458
-454
-459
-460
-457
-453
-449
-439
-436
-436
-433
-420
-413
-405
-396
-389
-379
-368
-363
-365
-362
-351
-348
-343
-337
-333
-326
-319
-318
-323
-319
-312
-310
-303
-296
-289
-278
-267
-261
-259
-249
-240
-232
-222
-212
-203
-188
-179
-175
-179
-167
-162
-160
-157
-154
-153
-147
-147
-151
-160
-150
-152
-151
-149
-148
-146
-140
-139
-142
-143
-135
-134
-130
-126
-122
-116
-106
-104
-108
-108
-99
-98
-95
-91
-88
-82
-77
-79
-87
-84
-79
-78
-74
-69
-65
-56
-48
-45
-48
-40
-34
-29
-21
-12
-4
12
22
27
26
39
46
53
61
69
77
91
99
103
102
119
124
130
135
140
145
153
156
155
155
164
165
168
171
172
176
183
184
178
179
187
188
192
197
201
209
216
217
212
219
227
230
235
240
242
247
250
247
239
241
242
240
240
240
239
244
242
235
223
225
222
219
218
218
218
226
227
222
214
224
222
221
221
220
219
220
215
204
194
192
181
171
161
150
143
138
128
112
104
105
99
96
94
92
96
99
98
91
96
102
105
110
116
120
127
133
134
128
135
137
136
137
136
134
138
135
127
115
116
111
108
106
103
101
106
102
94
83
89
86
84
83
84
86
91
90
85
81
86
83
81
80
78
79
83
80
70
68
71
68
66
65
62
64
65
58
45
44
44
40
39
38
38
41
45
45
39
49
53
55
58
60
57
57
48
31
7
-8
-32
-57
-83
-110
-137
-155
-180
-208
-238
-251
-275
-297
-319
-343
-368
-395
-433
-481
-532
-578
-636
-694
-752
-812
-872
-933
-1003
-1082
-1158
-1233
-1319
-1409
-1502
-1602
-1703
-1811
-1931
-2063
-2193
-2329
-2478
-2632
-2792
-2958
-3122
-3289
-3460
-3636
-3792
-3952
-4111
-4265
-4417
-4566
-4703
-4837
-4962
-5079
-5171
-5257
-5330
-5391
-5442
-5484
-5513
-5544
-5575
-5599
-5597
-5589
-5561
-5509
-5433
-5329
-5196
-5045
-4878
-4690
-4478
-4263
-4038
-3811
-3586
-3362
-3143
-2937
-2743
-2548
-2354
-2173
-1999
-1835
-1681
-1532
-1393
-1268
-1155
-1035
-915
-800
-683
-565
-447
-324
-204
-88
21
147
261
370
473
570
661
751
832
903
965
1035
1092
1144
1192
1234
1272
1313
1342
1362
1377
1402
1416
1425
1432
1433
1432
1430
1419
1401
1385
1378
1363
1349
1338
1326
1319
1313
1303
1287
1281
1281
1277
1277
1280
1284
1295
1306
1312
1315
1328
1342
1353
1365
1377
1388
1403
1414
1417
1412
1422
1423
1420
1418
1414
1409
1407
1401
1392
1378
1380
1374
1370
1369
1367
1367
1374
1376
1374
1373
1383
1386
1389
1394
1397
1402
1408
1407
1399
1394
1397
1391
1385
1379
1369
1362
1354
1338
1316
1303
1294
1281
1270
1260
1249
1245
1239
1228
1212
1206
1202
1196
1193
1190
1186
1189
1185
1175
1157
1156
1146
1134
1123
1112
1100
1092
1078
1060
1036
1027
1007
987
969
949
930
917
899
875
853
841
823
808
794
781
770
762
748
727
711
704
687
672
656
638
622
606
584
555
536
519
497
477
458
437
421
404
382
355
337
320
301
284
268
252
242
225
202
172
159
137
114
92
69
47
28
4
-25
-58
-73
-99
-122
-142
-161
-178
-190
-206
-226
-244
-251
-264
-275
-284
-293
-297
-297
-301
-310
-313
-306
-308
-306
-304
-302
-295
-288
-286
-289
-280
-268
-261
-252
-241
-233
-220
-209
-201
-198
-185
-172
-161
-149
-136
-124
-106
-94
-89
-91
-79
-75
-73
-71
-71
-73
-71
-76
-86
-103
-102
-113
-123
-131
-139
-147
-152
-163
-178
-192
-197
-208
-217
-224
-232
-236
-236
-242
-253
-259
-257
-263
-266
-269
-273
-273
-272
-277
-289
-289
-289
-293
-295
-298
-302
-302
-303
-308
-317
-316
-316
-318
-319
-320
-323
-319
-321
-328
-339
-335
-337
-339
-339
-339
-340
-335
-336
-341
-351
-341
-342
-341
-339
-336
-333
-326
-324
-326
-325
-314
-309
-302
-293
-284
-272
-258
-251
-249
-242
-229
-224
-218
-211
-207
-198
-192
-192
-200
-197
-193
-194
-193
-191
-189
-183
-178
-177
-180
-170
-164
-159
-152
-146
-141
-131
-127
-129
-137
-133
-137
-141
-146
-152
-160
-164
-175
-191
-213
-216
-229
-241
-251
-261
-271
-277
-288
-303
-315
-317
-325
-329
-333
-336
-337
-335
-339
-350
-355
-354
-360
-365
-370
-375
-377
-380
-390
-407
-414
-420
-431
-440
-448
-456
-461
-466
-476
-492
-493
-498
-504
-508
-513
-517
-515
-517
-522
-532
-528
-530
-532
-533
-535
-537
-533
-536
-545
-557
-551
-556
-560
-564
-568
-572
-573
-578
-587
-594
-590
-593
-593
-592
-592
-589
-585
-588
-597
-600
-597
-599
-599
-598
-599
-594
-592
-596
-607
-608
-609
-612
-614
-614
-614
-611
-608
-609
-616
-607
-605
-604
-601
-599
-599
-591
-589
-591
-597
-592
-594
-596
-597
-599
-600
-593
-593
-598
-605
-596
-595
-593
-590
-587
-582
-575
-574
-577
-577
-567
-565
-560
-555
-553
-547
-542
-544
-552
-553
-549
-551
-551
-550
-550
-545
-541
-543
-551
-548
-542
-539
-532
-523
-513
-497
-482
-472
-467
-445
-428
-411
-390
-368
-346
-317
-292
-271
-253
-223
-200
-176
-150
-125
-100
-68
-42
-22
-2
32
58
86
115
145
177
212
242
267
294
331
359
389
419
447
476
504
525
539
559
582
597
612
626
637
651
662
668
668
678
691
701
713
725
738
757
773
784
788
810
824
837
853
868
882
900
912
918
918
932
936
940
945
949
953
963
965
960
955
960
958
957
956
955
957
961
960
953
951
957
956
957
959
960
965
971
971
965
967
972
971
971
971
970
975
977
975
970
973
978
980
985
989
992
1000
1003
1000
991
999
1001
1002
1005
1008
1011
1017
1019
1016
1008
1015
1014
1013
1013
1013
1013
1018
1017
1010
1003
1005
1001
999
998
997
997
1000
998
990
986
990
987
987
988
988
992
998
997
990
994
1001
1002
1007
1011
1015
1024
1032
1035
1034
1041
1050
1055
1061
1066
1069
1078
1082
1079
1070
1079
1079
1077
1076
1074
1071
1072
1067
1058
1045
1049
1044
1041
1040
1039
1039
1044
1042
1037
1033
1038
1036
1036
1037
1037
1039
1043
1038
1027
1018
1019
1011
1006
1001
995
992
990
982
967
962
960
952
947
943
939
941
943
939
932
933
933
931
930
928
924
927
923
913
897
896
886
875
863
850
835
825
810
790
766
760
744
729
716
703
690
682
668
651
636
631
621
613
607
601
597
596
587
573
564
562
552
543
534
524
518
510
495
473
460
449
432
418
405
392
384
375
362
345
337
327
316
306
297
287
284
275
262
242
237
224
208
193
176
158
144
124
98
67
54
30
6
-17
-41
-65
-86
-114
-145
-174
-193
-220
-245
-269
-294
-318
-341
-371
-406
-436
-458
-488
-515
-541
-570
-595
-620
-652
-689
-713
-735
-759
-779
-796
-813
-825
-836
-849
-865
-869
-873
-875
-873
-868
-863
-848
-838
-831
-827
-809
-797
-785
-772
-760
-747
-727
-713
-704
-699
-675
-662
-649
-634
-621
-607
-591
-580
-575
-569
-555
-548
-540
-533
-528
-521
-513
-512
-518
-517
-509
-508
-504
-500
-496
-488
-480
-479
-484
-476
-467
-461
-454
-445
-438
-428
-418
-414
-415
-404
-398
-393
-387
-381
-374
-360
-352
-350
-351
-340
-336
-331
-325
-319
-313
-301
-296
-296
-299
-285
-281
-276
-270
-264
-256
-245
-238
-236
-232
-218
-213
-206
-198
-192
-183
-172
-167
-168
-162
-149
-144
-137
-129
-123
-112
-103
-99
-103
-94
-84
-78
-69
-59
-49
-34
-21
-12
-8
12
27
41
57
73
87
106
120
129
132
147
157
166
177
187
197
213
222
226
227
245
253
261
271
282
293
308
318
322
328
342
349
358
367
376
388
402
410
412
420
435
442
451
459
464
474
482
484
480
487
495
498
503
509
513
522
529
531
527
539
545
551
558
565
570
581
585
585
580
586
586
585
584
582
578
582
575
562
546
544
533
524
515
505
498
494
484
471
461
462
454
448
444
439
438
440
434
422
418
419
414
410
407
402
403
402
395
383
380
378
373
368
363
356
355
350
341
325
328
324
319
315
310
305
304
299
290
278
280
275
271
270
267
264
268
264
254
243
245
238
232
228
223
219
218
211
198
189
190
183
179
178
176
177
179
175
165
162
164
160
159
158
156
160
162
160
152
153
156
153
152
151
148
151
150
143
128
131
124
115
106
94
81
70
53
32
6
-6
-27
-49
-70
-94
-118
-136
-161
-192
-223
-243
-267
-290
-312
-335
-357
-376
-401
-431
-457
-473
-498
-520
-541
-563
-582
-599
-621
-650
-668
-681
-699
-711
-721
-730
-731
-733
-738
-746
-745
-740
-737
-731
-725
-719
-705
-695
-691
-692
-676
-667
-660
-651
-643
-636
-626
-621
-621
-626
-616
-616
-615
-614
-613
-613
-606
-606
-610
-612
-603
-600
-595
-590
-584
-576
-565
-560
-558
-552
-534
-524
-512
-499
-488
-474
-461
-455
-454
-444
-431
-423
-413
-403
-396
-384
-374
-371
-374
-370
-365
-363
-358
-353
-347
-333
-324
-318
-319
-302
-292
-283
-272
-260
-249
-234
-224
-220
-221
-207
-205
-202
-200
-200
-200
-196
-198
-204
-207
-201
-200
-197
-192
-188
-181
-170
-165
-165
-159
-145
-138
-128
-118
-110
-98
-87
-82
-85
-78
-69
-65
-58
-52
-47
-40
-34
-33
-37
-34
-29
-28
-24
-19
-17
-8
-4
-7
-15
-7
-6
-5
-3
1
6
16
22
22
18
32
36
41
49
57
66
81
91
97
106
124
135
148
162
175
190
208
221
228
239
258
269
282
295
307
322
336
343
344
356
370
380
393
406
419
434
449
460
465
478
491
500
511
521
528
541
546
544
536
542
541
539
537
535
532
535
530
519
503
506
497
490
485
481
477
478
474
466
460
463
460
458
457
456
457
462
460
453
450
455
451
449
447
443
444
444
437
424
421
420
413
409
403
395
389
380
368
350
343
332
320
311
301
291
289
280
265
243
230
209
184
155
120
77
33
-26
-97
-178
-243
-322
-400
-478
-556
-634
-709
-790
-879
-967
-1050
-1143
-1239
-1338
-1443
-1551
-1662
-1783
-1917
-2051
-2186
-2333
-2483
-2637
-2794
-2946
-3097
-3251
-3410
-3553
-3691
-3830
-3962
-4087
-4205
-4308
-4399
-4482
-4560
-4612
-4657
-4695
-4724
-4746
-4764
-4770
-4772
-4766
-4749
-4698
-4629
-4535
-4415
-4272
-4108
-3918
-3722
-3519
-3312
-3082
-2860
-2640
-2423
-2215
-2012
-1813
-1627
-1453
-1281
-1104
-941
-785
-637
-501
-372
-250
-142
-46
53
154
245
336
426
516
611
704
788
859
935
1003
1058
1106
1146
1176
1201
1217
1221
1211
1210
1198
1181
1162
1141
1119
1101
1079
1052
1020
999
971
942
913
882
850
826
795
759
722
702
675
650
627
604
585
569
550
528
510
503
491
482
477
473
473
476
473
465
465
471
470
473
475
475
479
480
475
461
457
453
445
437
430
422
419
413
402
385
385
378
371
368
366
365
371
373
371
366
373
373
372
371
367
361
362
355
342
329
331
325
320
317
315
314
318
317
311
308
316
316
319
323
326
332
339
339
332
333
340
340
343
345
345
351
356
356
350
354
359
361
364
367
371
380
387
389
384
397
403
407
414
421
426
438
444
447
444
454
456
457
459
460
459
464
461
451
441
443
437
433
431
427
426
428
425
417
413
420
419
421
425
428
434
441
442
435
438
444
444
445
447
446
449
450
445
433
430
429
423
421
420
420
426
427
425
415
425
428
432
438
444
450
459
464
463
456
463
460
456
452
447
441
441
432
418
404
401
390
380
372
362
356
353
345
333
326
330
326
325
325
323
324
326
322
312
312
315
312
312
312
311
314
316
313
305
305
307
306
305
303
301
304
300
290
273
273
266
258
252
246
240
238
231
219
202
202
192
183
177
171
167
168
163
153
143
141
134
127
121
113
108
105
95
79
65
61
47
35
23
9
0
-8
-23
-42
-51
-57
-68
-75
-82
-88
-89
-91
-97
-106
-107
-106
-108
-109
-111
-114
-110
-113
-122
-137
-135
-141
-147
-153
-160
-167
-171
-181
-196
-215
-215
-227
-235
-242
-250
-256
-257
-263
-273
-281
-280
-285
-288
-289
-290
-289
-286
-289
-300
-307
-306
-314
-321
-329
-339
-346
-353
-368
-392
-405
-418
-435
-451
-466
-481
-493
-504
-519
-538
-548
-559
-573
-586
-601
-617
-627
-644
-666
-694
-705
-724
-744
-763
-784
-805
-822
-845
-873
-907
-923
-952
-980
-1006
-1033
-1058
-1079
-1104
-1132
-1156
-1169
-1187
-1201
-1211
-1221
-1227
-1229
-1236
-1248
-1255
-1252
-1257
-1258
-1258
-1259
-1256
-1252
-1255
-1265
-1263
-1260
-1261
-1260
-1258
-1256
-1250
-1244
-1241
-1243
-1234
-1227
-1222
-1214
-1206
-1199
-1184
-1175
-1169
-1167
-1149
-1136
-1124
-1110
-1097
-1083
-1063
-1050
-1042
-1038
-1016
-1005
-993
-982
-972
-962
-949
-941
-938
-932
-917
-908
-897
-885
-875
-863
-849
-842
-842
-835
-821
-813
-802
-789
-776
-758
-739
-726
-720
-700
-679
-662
-642
-620
-597
-570
-543
-521
-504
-476
-451
-430
-407
-384
-363
-335
-313
-298
-287
-264
-246
-230
-212
-194
-177
-152
-134
-120
-108
-77
-55
-31
-5
22
50
82
109
132
158
193
221
252
283
311
341
372
396
413
437
467
488
512
536
558
584
610
630
644
669
697
721
749
777
805
836
867
893
912
945
971
996
1022
1047
1069
1097
1118
1134
1144
1165
1179
1191
1202
1212
1221
1237
1245
1246
1244
1260
1265
1272
1280
1288
1297
1310
1317
1320
1325
1341
1348
1358
1367
1375
1384
1395
1398
1394
1397
1404
1403
1404
1403
1398
1398
1395
1385
1368
1364
1360
1354
1350
1348
1346
1349
1350
1347
1338
1346
1348
1350
1353
1357
1360
1369
1371
1367
1357
1359
1352
1344
1336
1325
1313
1308
1293
1272
1250
1242
1226
1211
1197
1184
1175
1169
1159
1145
1135
1134
1127
1121
1117
1113
1112
1114
1109
1099
1096
1097
1091
1087
1081
1073
1069
1062
1049
1030
1020
1012
1001
992
983
975
971
966
957
942
946
944
943
944
945
945
949
948
942
932
935
929
924
920
915
909
909
901
887
871
867
856
846
837
829
822
817
806
789
773
765
747
731
714
695
679
662
638
606
582
560
531
504
475
445
419
392
361
325
299
275
246
220
194
167
145
120
90
52
34
8
-19
-43
-67
-90
-109
-132
-157
-186
-200
-221
-239
-255
-269
-283
-287
-298
-313
-328
-329
-337
-342
-346
-351
-353
-352
-357
-368
-375
-373
-379
-384
-388
-393
-394
-394
-399
-412
-415
-414
-419
-420
-421
-422
-417
-414
-416
-422
-420
-416
-417
-416
-415
-414
-408
-407
-412
-424
-417
-418
-421
-423
-427
-431
-433
-440
-451
-466
-465
-472
-478
-481
-485
-488
-484
-487
-494
-498
-491
-489
-484
-476
-467
-456
-441
-432
-427
-417
-398
-387
-373
-360
-348
-334
-320
-312
-313
-305
-294
-289
-281
-272
-264
-250
-238
-229
-226
-214
-201
-191
-180
-168
-156
-137
-121
-111
-107
-85
-71
-57
-42
-28
-14
4
18
27
31
52
61
72
82
91
99
111
116
116
117
126
130
135
140
145
151
160
162
159
161
172
176
183
192
199
211
223
230
230
239
250
256
264
272
279
289
297
299
296
301
305
304
306
306
306
314
316
313
302
308
306
303
302
301
300
306
307
305
298
311
313
317
323
329
334
343
345
343
343
351
352
354
355
355
357
361
359
351
350
358
360
365
372
378
389
399
404
402
413
426
435
447
459
471
486
500
508
510
519
527
532
537
542
543
552
554
550
540
545
543
540
539
538
539
546
548
545
538
551
552
555
560
563
566
573
576
573
572
579
579
580
581
581
583
586
583
573
568
570
563
557
550
540
533
524
508
483
470
456
439
423
408
393
381
369
353
332
324
314
303
296
288
280
278
270
257
239
234
224
213
202
191
180
174
162
144
122
118
102
88
74
61
48
40
27
10
-5
-10
-21
-30
-39
-48
-53
-56
-65
-80
-89
-92
-102
-110
-119
-130
-137
-144
-158
-178
-186
-193
-205
-215
-225
-236
-243
-250
-261
-278
-282
-289
-298
-305
-310
-317
-317
-322
-333
-348
-349
-355
-360
-363
-366
-368
-364
-368
-378
-392
-389
-397
-404
-409
-416
-420
-422
-429
-440
-450
-450
-458
-463
-466
-470
-470
-466
-468
-475
-476
-469
-469
-467
-464
-461
-454
-449
-449
-456
-450
-444
-442
-439
-437
-436
-433
-431
-434
-443
-437
-437
-439
-439
-441
-444
-442
-446
-454
-466
-463
-465
-464
-461
-457
-454
-443
-440
-441
-445
-431
-425
-418
-408
-398
-387
-373
-365
-362
-357
-344
-338
-331
-324
-319
-312
-305
-306
-313
-314
-311
-314
-315
-315
-315
-309
-302
-301
-304
-296
-287
-281
-273
-265
-258
-246
-236
-231
-234
-220
-213
-209
-204
-199
-196
-187
-182
-182
-184
-174
-169
-164
-157
-152
-147
-134
-130
-131
-133
-120
-114
-106
-97
-88
-78
-64
-55
-52
-45
-28
-19
-8
4
16
30
45
54
55
64
77
83
91
100
107
120
130
135
134
144
156
164
175
187
198
215
230
241
245
268
282
295
309
323
336
353
366
373
377
393
402
410
418
425
432
446
451
452
452
465
471
478
486
493
502
514
520
520
524
537
543
550
558
565
575
586
590
587
592
600
603
607
611
613
619
622
619
611
612
615
614
617
621
625
635
642
644
638
650
653
654
654
653
650
650
644
632
614
607
588
567
545
522
498
480
455
426
399
382
357
330
302
270
237
203
158
102
41
-16
-87
-161
-237
-316
-394
-472
-558
-651
-737
-821
-913
-1006
-1103
-1207
-1312
-1423
-1546
-1680
-1811
-1945
-2091
-2242
-2399
-2563
-2725
-2895
-3071
-3253
-3416
-3585
-3751
-3913
-4070
-4224
-4367
-4508
-4643
-4769
-4866
-4960
-5039
-5102
-5154
-5196
-5223
-5250
-5276
-5295
-5298
-5299
-5286
-5257
-5211
-5139
-5041
-4924
-4788
-4626
-4435
-4237
-4025
-3805
-3584
-3360
-3140
-2931
-2734
-2533
-2335
-2150
-1968
-1791
-1623
-1459
-1306
-1166
-1039
-910
-784
-663
-542
-421
-302
-177
-58
55
159
278
387
489
586
675
755
832
895
947
987
1036
1067
1094
1117
1134
1147
1160
1162
1157
1149
1147
1135
1121
1105
1085
1064
1045
1017
984
954
932
903
877
853
830
812
798
780
758
749
744
737
733
731
730
734
739
741
738
745
753
758
766
773
778
791
795
792
782
786
781
775
769
762
755
753
745
732
714
713
702
693
686
679
672
670
663
651
641
639
630
624
620
615
614
615
610
600
594
595
589
585
582
578
580
581
578
568
568
570
566
565
563
561
562
563
560
551
553
552
549
549
547
543
545
540
530
514
513
507
501
496
491
486
486
480
469
454
459
452
446
442
437
434
434
428
417
408
409
402
397
394
392
394
400
401
397
400
411
416
425
436
448
466
485
499
508
530
553
571
592
614
635
660
683
702
714
736
754
769
782
794
804
819
828
831
830
841
847
852
857
862
866
878
883
884
882
899
907
917
929
941
954
968
977
981
986
999
1005
1011
1017
1020
1023
1026
1021
1007
996
990
975
961
946
928
915
899
877
849
832
816
796
779
762
746
733
719
701
676
663
645
624
605
584
561
544
519
490
456
435
407
380
353
326
298
278
251
220
187
172
149
127
108
89
72
59
42
20
0
-9
-26
-41
-56
-71
-84
-95
-113
-138
-155
-166
-183
-198
-212
-227
-237
-248
-264
-287
-298
-308
-322
-333
-344
-354
-359
-366
-376
-394
-395
-403
-411
-417
-424
-431
-431
-437
-448
-462
-463
-471
-480
-488
-496
-505
-506
-514
-528
-544
-544
-553
-561
-569
-577
-583
-587
-595
-608
-617
-615
-621
-625
-627
-631
-632
-631
-636
-645
-646
-641
-642
-642
-640
-640
-636
-634
-639
-650
-651
-651
-656
-660
-664
-670
-673
-679
-689
-708
-710
-719
-731
-739
-749
-759
-763
-771
-782
-797
-798
-806
-813
-819
-824
-829
-827
-833
-844
-857
-856
-865
-873
-882
-891
-898
-902
-910
-922
-931
-929
-933
-934
-933
-932
-928
-921
-920
-924
-920
-912
-910
-906
-903
-902
-897
-895
-899
-909
-909
-907
-909
-909
-909
-911
-908
-909
-915
-929
-925
-928
-931
-932
-934
-936
-934
-937
-944
-954
-950
-953
-955
-954
-953
-951
-942
-939
-941
-943
-932
-929
-925
-920
-916
-909
-900
-895
-896
-893
-882
-879
-874
-870
-867
-861
-854
-854
-859
-857
-850
-850
-847
-845
-843
-838
-833
-832
-836
-829
-819
-813
-803
-793
-783
-766
-753
-745
-744
-724
-712
-700
-688
-676
-664
-649
-637
-631
-628
-610
-601
-590
-577
-563
-548
-526
-511
-500
-489
-466
-448
-428
-405
-380
-352
-321
-294
-272
-246
-211
-185
-156
-127
-100
-69
-39
-15
2
26
53
73
96
117
138
164
189
211
230
258
288
317
348
379
410
449
483
513
538
581
617
653
691
729
765
805
840
869
894
935
967
1000
1034
1068
1101
1138
1169
1194
1219
1254
1282
1312
1342
1369
1398
1429
1450
1464
1479
1499
1509
1518
1525
1528
1533
1536
1530
1515
1507
1501
1486
1473
1459
1444
1433
1421
1402
1378
1361
1344
1324
1303
1283
1260
1246
1226
1202
1174
1164
1147
1130
1116
1102
1088
1081
1069
1054
1035
1035
1024
1015
1006
997
988
983
972
957
943
937
925
914
903
891
881
873
858
837
821
815
802
792
784
776
774
773
766
753
752
753
750
752
755
759
766
773
775
772
777
780
778
776
773
768
769
764
752
733
729
717
704
693
682
671
667
658
645
629
634
628
624
622
620
619
621
618
611
606
611
608
607
605
601
599
598
590
575
565
563
553
545
537
528
523
518
506
488
482
479
473
471
469
468
470
471
468
458
457
455
449
445
439
431
430
421
406
385
378
364
350
337
323
309
301
287
269
247
245
232
222
215
208
203
202
198
190
185
191
189
190
191
191
193
198
195
187
184
189
189
191
194
195
201
206
204
196
200
205
206
209
212
215
220
225
225
219
225
228
229
233
238
241
252
257
257
252
261
264
266
270
273
277
287
289
286
279
288
286
283
281
278
276
276
271
262
255
257
253
251
250
248
249
253
252
245
246
255
257
262
268
274
285
295
298
295
304
313
317
323
328
331
337
341
339
330
335
335
333
333
332
330
335
335
330
321
325
324
323
325
326
329
338
341
338
331
340
338
338
338
337
337
340
338
331
326
330
327
327
327
327
332
341
345
344
350
362
367
375
384
392
407
422
432
437
453
471
486
503
520
536
556
574
587
592
614
629
642
657
670
683
700
711
717
717
729
734
737
741
741
739
742
735
719
698
689
669
647
623
597
571
545
514
476
440
414
379
347
315
284
256
231
201
164
136
113
85
59
34
9
-10
-29
-50
-76
-90
-100
-113
-123
-131
-139
-140
-143
-149
-161
-154
-156
-158
-159
-160
-163
-161
-165
-174
-187
-187
-194
-201
-207
-214
-220
-221
-229
-242
-255
-253
-258
-261
-261
-260
-257
-250
-248
-251
-251
-241
-238
-232
-225
-220
-212
-203
-202
-207
-205
-200
-201
-201
-200
-199
-193
-188
-189
-195
-191
-186
-185
-183
-180
-178
-170
-165
-165
-173
-162
-159
-158
-155
-153
-152
-147
-146
-149
-155
-149
-150
-150
-150
-151
-153
-148
-153
-162
-172
-169
-172
-173
-174
-175
-175
-172
-174
-182
-186
-180
-181
-181
-179
-179
-174
-169
-169
-176
-174
-169
-169
-168
-166
-164
-158
-154
-155
-162
-161
-158
-161
-161
-163
-165
-162
-164
-171
-185
-182
-186
-192
-197
-201
-205
-204
-207
-213
-222
-215
-215
-214
-211
-210
-209
-204
-206
-214
-222
-220
-224
-228
-231
-235
-237
-236
-242
-253
-259
-254
-256
-256
-253
-251
-245
-239
-238
-243
-238
-230
-227
-220
-213
-205
-193
-181
-174
-171
-160
-148
-140
-129
-118
-108
-90
-78
-72
-73
-58
-52
-47
-41
-37
-33
-25
-22
-23
-29
-19
-19
-17
-14
-13
-11
-2
1
2
5
18
26
37
47
58
70
87
97
102
111
129
138
149
159
166
175
182
181
173
174
177
174
172
171
169
171
173
170
164
166
170
173
178
184
192
208
218
224
224
241
251
260
271
281
292
307
317
321
319
335
337
341
346
350
354
363
365
363
363
372
374
377
382
385
390
398
398
392
391
397
394
391
388
381
376
370
356
334
323
312
295
280
264
247
233
218
197
172
156
139
121
106
91
75
66
51
31
5
-6
-24
-42
-58
-74
-91
-103
-121
-143
-170
-179
-199
-217
-232
-247
-260
-269
-281
-298
-314
-320
-334
-346
-356
-366
-372
-374
-382
-395
-402
-401
-406
-407
-407
-405
-398
-390
-386
-387
-374
-360
-348
-335
-322
-310
-296
-281
-271
-267
-252
-241
-231
-221
-212
-206
-192
-186
-184
-188
-178
-173
-167
-160
-154
-148
-136
-131
-132
-137
-123
-119
-115
-109
-105
-100
-92
-91
-95
-98
-93
-97
-100
-103
-106
-107
-106
-112
-123
-129
-127
-132
-135
-136
-139
-137
-134
-136
-144
-140
-134
-133
-129
-125
-120
-111
-102
-98
-100
-88
-81
-75
-68
-62
-58
-48
-45
-47
-53
-47
-47
-47
-47
-49
-51
-46
-48
-56
-68
-60
-63
-64
-62
-60
-57
-50
-49
-51
-51
-41
-39
-34
-27
-20
-12
-2
1
-4
-3
3
2
2
2
0
2
3
-1
-13
-12
-10
-12
-12
-11
-10
-4
1
3
0
12
20
26
33
40
47
60
68
73
75
90
99
106
113
118
121
129
128
121
111
117
115
114
115
117
120
126
129
128
129
141
145
152
159
165
174
184
187
183
186
194
195
199
203
207
217
226
228
224
231
239
243
249
255
261
271
278
280
274
284
286
286
288
289
289
294
295
290
282
286
285
284
285
285
285
293
293
289
284
295
297
300
305
309
315
323
326
324
324
335
337
342
346
349
355
362
361
354
356
363
363
366
369
370
376
379
376
364
361
357
347
338
329
319
314
306
292
270
265
251
237
224
211
197
188
173
152
126
113
91
69
49
30
14
6
-9
-29
-50
-59
-77
-97
-121
-150
-184
-222
-273
-336
-401
-462
-533
-604
-677
-753
-829
-905
-991
-1086
-1176
-1266
-1367
-1471
-1580
-1697
-1814
-1940
-2076
-2225
-2370
-2520
-2677
-2836
-2997
-3159
-3314
-3469
-3626
-3787
-3924
-4063
-4200
-4330
-4453
-4571
-4675
-4772
-4864
-4949
-5009
-5068
-5116
-5155
-5189
-5218
-5236
-5255
-5268
-5266
-5235
-5187
-5114
-5013
-4886
-4734
-4559
-4372
-4178
-3971
-3748
-3530
-3311
-3096
-2890
-2687
-2489
-2305
-2135
-1960
-1787
-1627
-1473
-1329
-1197
-1069
-950
-842
-743
-638
-534
-435
-336
-237
-139
-33
68
162
246
344
429
506
579
645
705
764
812
850
878
915
938
956
972
984
993
1003
1004
998
989
988
978
967
956
943
931
923
909
891
878
876
870
868
868
870
879
891
899
902
915
932
944
958
973
986
1003
1018
1027
1031
1042
1054
1061
1069
1076
1082
1093
1098
1097
1088
1096
1097
1098
1101
1103
1106
1113
1115
1114
1109
1122
1124
1127
1132
1136
1141
1149
1150
1146
1141
1144
1140
1137
1135
1131
1129
1129
1123
1110
1102
1102
1095
1091
1089
1086
1087
1090
1088
1081
1084
1090
1092
1096
1099
1103
1109
1114
1114
1109
1111
1113
1110
1108
1104
1098
1097
1090
1078
1059
1055
1045
1034
1026
1019
1012
1011
1005
995
982
987
983
981
981
982
983
988
987
980
974
976
970
965
960
953
947
944
932
914
900
895
881
871
862
852
846
839
826
805
794
784
768
752
736
718
702
685
663
635
618
600
580
561
543
524
514
499
479
455
446
431
415
400
384
368
357
340
318
293
288
271
257
245
232
221
213
201
185
172
169
159
153
148
143
141
142
136
123
116
115
108
102
97
90
87
83
73
56
50
45
36
29
24
19
17
16
11
1
2
0
-3
-6
-8
-11
-6
-7
-11
-21
-17
-19
-22
-24
-27
-31
-29
-35
-46
-62
-60
-70
-79
-88
-98
-106
-112
-120
-132
-141
-141
-147
-151
-155
-159
-161
-161
-168
-181
-188
-188
-195
-198
-201
-204
-203
-203
-208
-220
-219
-217
-220
-219
-218
-218
-214
-212
-214
-222
-218
-219
-221
-221
-220
-221
-215
-215
-220
-230
-226
-230
-234
-237
-242
-247
-245
-251
-263
-278
-277
-287
-297
-306
-316
-324
-331
-342
-358
-370
-373
-383
-392
-400
-410
-417
-421
-432
-450
-461
-465
-475
-482
-488
-495
-498
-501
-511
-525
-527
-527
-530
-531
-532
-533
-531
-530
-534
-546
-543
-546
-551
-554
-558
-564
-564
-570
-582
-600
-605
-617
-629
-641
-653
-664
-668
-679
-695
-712
-713
-723
-731
-737
-743
-745
-743
-745
-752
-754
-747
-747
-746
-743
-742
-738
-731
-731
-737
-734
-727
-727
-726
-725
-726
-722
-720
-724
-732
-729
-725
-724
-719
-715
-710
-700
-692
-687
-689
-674
-666
-659
-650
-642
-635
-624
-617
-615
-617
-607
-604
-602
-597
-593
-589
-578
-576
-578
-581
-571
-567
-561
-553
-544
-533
-517
-506
-499
-488
-467
-454
-439
-422
-408
-391
-374
-363
-360
-350
-335
-329
-321
-315
-311
-302
-295
-294
-297
-290
-280
-275
-266
-257
-249
-234
-222
-213
-211
-190
-176
-161
-145
-129
-114
-97
-87
-83
-85
-75
-74
-73
-73
-76
-80
-81
-91
-108
-126
-134
-148
-160
-171
-182
-189
-194
-204
-219
-230
-231
-240
-246
-250
-254
-254
-252
-255
-263
-261
-255
-254
-250
-245
-240
-230
-221
-215
-214
-203
-190
-180
-168
-155
-142
-121
-105
-93
-87
-63
-46
-29
-10
8
26
47
65
80
92
120
140
163
187
212
236
266
288
304
319
343
361
380
399
415
433
453
466
473
484
504
515
528
543
556
573
590
601
605
618
633
642
652
664
673
688
703
713
719
733
748
760
772
784
795
812
824
830
828
844
850
855
860
865
868
875
876
873
865
873
872
871
872
872
871
876
874
868
862
868
868
870
873
876
880
887
886
879
876
881
877
875
873
869
867
865
856
839
832
827
817
810
804
799
798
797
791
781
779
780
778
778
779
779
787
790
788
780
788
788
787
787
785
783
785
782
774
761
766
759
752
746
738
730
726
715
699
685
680
669
659
650
639
631
624
612
594
582
579
569
563
557
551
550
547
538
521
515
510
499
491
483
473
467
461
449
434
427
421
412
407
403
400
405
404
399
389
395
395
394
395
396
398
405
406
403
395
405
403
402
402
400
399
402
400
393
389
394
393
393
396
398
403
411
413
410
411
422
425
432
439
446
458
469
474
472
481
492
498
505
513
520
529
536
537
533
538
540
541
543
545
545
552
553
549
539
544
545
545
548
551
555
566
570
570
565
579
582
586
591
596
602
610
614
612
613
622
624
627
630
631
633
637
635
626
621
621
613
603
593
579
567
553
530
499
480
460
436
413
390
366
344
322
296
263
242
218
193
169
146
121
102
76
46
12
-9
-33
-57
-78
-97
-114
-123
-137
-155
-176
-177
-188
-194
-199
-202
-205
-204
-209
-218
-226
-226
-235
-243
-252
-262
-270
-276
-289
-308
-322
-330
-345
-358
-370
-383
-391
-399
-412
-429
-434
-437
-443
-446
-448
-451
-449
-446
-447
-452
-441
-434
-426
-416
-407
-397
-380
-368
-360
-356
-339
-327
-315
-302
-289
-277
-259
-250
-247
-248
-233
-229
-224
-216
-209
-199
-187
-180
-177
-172
-155
-146
-133
-118
-102
-83
-63
-49
-42
-29
-10
2
16
29
41
58
72
79
78
87
96
98
102
105
106
111
114
112
104
112
115
116
120
123
125
134
139
139
138
149
155
162
169
175
179
189
191
186
178
184
181
178
176
173
171
172
166
156
148
151
146
144
143
143
146
151
149
142
141
144
142
141
142
142
149
153
151
144
146
149
147
147
147
147
152
156
156
149
161
166
171
178
185
192
204
211
213
213
225
230
234
237
237
234
238
231
218
203
201
191
184
178
172
168
165
153
134
116
105
82
58
29
-6
-43
-85
-136
-195
-248
-297
-354
-408
-462
-518
-569
-624
-687
-758
-824
-892
-969
-1049
-1135
-1228
-1322
-1427
-1545
-1676
-1794
-1924
-2058
-2191
-2322
-2451
-2572
-2692
-2811
-2929
-3029
-3131
-3227
-3314
-3394
-3465
-3518
-3567
-3610
-3644
-3658
-3673
-3682
-3684
-3678
-3657
-3616
-3560
-3485
-3382
-3245
-3092
-2916
-2725
-2524
-2311
-2093
-1879
-1675
-1466
-1261
-1072
-892
-722
-563
-409
-264
-134
-19
93
194
278
352
416
470
523
565
595
614
648
671
691
711
727
740
753
758
754
741
740
726
709
690
669
645
625
597
564
531
509
481
454
428
399
373
350
321
288
260
242
215
192
171
150
134
121
102
79
68
61
50
42
36
28
26
23
16
4
2
2
1
3
6
10
22
30
33
31
47
56
65
76
87
98
112
122
127
127
143
146
150
155
158
162
171
173
170
167
172
171
170
170
170
171
175
174
168
165
171
168
167
166
164
166
168
164
154
153
155
151
149
146
142
142
140
134
123
121
120
117
116
115
114
120
121
117
107
115
117
119
124
129
135
147
154
158
158
177
185
194
205
215
227
242
251
256
261
276
286
297
308
319
332
349
358
362
371
388
397
407
417
425
437
448
453
450
459
468
470
474
477
479
484
488
488
484
490
496
499
503
506
507
516
517
514
504
510
510
508
507
506
503
505
500
488
472
474
464
456
449
443
437
436
430
419
412
414
410
409
411
413
418
427
431
428
432
442
445
449
453
454
459
462
459
448
447
447
441
436
433
428
427
427
423
415
418
418
417
418
419
420
427
429
427
420
427
428
429
431
430
429
433
429
419
404
410
404
400
397
394
390
389
383
373
366
368
364
363
363
362
364
369
367
358
356
360
357
357
357
357
361
365
362
352
353
355
351
350
350
349
353
357
356
350
356
357
356
357
357
356
363
364
361
354
360
361
361
363
364
364
371
369
363
353
360
356
352
348
342
335
328
313
292
271
256
232
208
183
154
127
99
62
18
-22
-55
-96
-135
-174
-213
-248
-283
-324
-371
-404
-436
-471
-502
-532
-561
-584
-607
-634
-667
-685
-708
-733
-756
-779
-802
-818
-840
-866
-894
-911
-933
-955
-974
-994
-1013
-1023
-1040
-1061
-1083
-1089
-1104
-1117
-1128
-1139
-1149
-1157
-1170
-1188
-1202
-1208
-1222
-1234
-1246
-1259
-1270
-1279
-1294
-1315
-1329
-1336
-1350
-1360
-1368
-1377
-1380
-1385
-1394
-1409
-1412
-1413
-1416
-1417
-1415
-1414
-1407
-1402
-1403
-1410
-1401
-1399
-1399
-1397
-1395
-1395
-1389
-1389
-1395
-1405
-1403
-1409
-1415
-1419
-1423
-1427
-1423
-1425
-1432
-1440
-1432
-1432
-1431
-1427
-1423
-1417
-1408
-1403
-1404
-1401
-1388
-1384
-1378
-1372
-1367
-1359
-1351
-1350
-1354
-1350
-1341
-1338
-1332
-1326
-1321
-1311
-1304
-1301
-1304
-1296
-1286
-1279
-1270
-1260
-1251
-1237
-1225
-1217
-1216
-1197
-1185
-1175
-1163
-1151
-1139
-1123
-1111
-1105
-1103
-1088
-1082
