6256
6034
5790
5530
5252
4948
4624
4280
3922
3553
3157
2740
2299
1854
1397
927
461
0
-447
-876
-1294
-1690
-2067
-2411
-2735
-3046
-3334
-3608
-3862
-4097
-4325
-4531
-4718
-4870
-4997
-5101
-5176
-5229
-5255
-5260
-5251
-5222
-5177
-5108
-5033
-4950
-4858
-4761
-4652
-4542
-4432
-4319
-4199
-4071
-3948
-3825
-3701
-3578
-3449
-3327
-3205
-3087
-2965
-2842
-2725
-2610
-2499
-2389
-2275
-2171
-2067
-1970
-1865
-1766
-1679
-1594
-1517
-1445
-1375
-1318
-1266
-1224
-1177
-1139
-1111
-1083
-1064
-1043
-1022
-1011
-999
-989
-972
-959
-948
-936
-925
-909
-892
-878
-860
-839
-808
-780
-754
-727
-701
-670
-643
-619
-597
-571
-542
-521
-502
-485
-470
-450
-436
-424
-414
-399
-382
-368
-354
-341
-326
-305
-292
-276
-263
-237
-211
-190
-165
-140
-113
-82
-58
-33
-12
19
46
65
86
101
117
133
141
147
152
164
172
175
179
181
187
192
192
193
197
209
216
222
228
234
245
255
264
273
288
309
324
338
351
364
379
389
396
399
406
414
415
415
412
410
413
406
403
395
398
401
399
399
398
399
403
402
405
404
418
430
437
449
459
473
488
497
506
514
527
536
540
544
544
546
547
542
537
532
534
530
525
519
514
514
510
505
500
501
508
510
513
516
522
533
543
552
560
573
588
597
606
611
616
626
625
624
618
621
621
616
612
605
601
600
592
587
577
582
583
578
578
575
577
581
581
583
587
599
608
615
624
630
640
648
649
650
651
659
659
656
651
643
640
632
621
609
603
601
594
588
581
575
574
570
567
563
566
573
574
579
582
588
600
604
611
614
626
635
639
643
642
644
649
643
640
631
636
635
628
624
618
616
615
610
606
604
611
615
616
620
623
632
640
644
650
658
674
684
692
700
706
717
722
723
720
722
726
722
716
709
700
694
684
672
659
653
650
641
636
630
627
632
629
631
631
641
653
662
673
683
697
715
723
734
740
757
768
772
777
777
780
782
778
775
770
773
772
768
766
763
765
766
763
762
765
776
783
790
798
807
823
835
847
858
874
892
903
912
919
923
930
931
930
924
926
928
922
919
913
909
909
903
899
894
897
899
897
898
897
900
908
906
909
910
924
934
940
947
950
957
963
963
963
961
966
964
958
951
940
933
924
909
895
883
878
868
857
846
835
830
821
811
801
798
799
796
792
788
785
787
784
780
771
772
770
759
749
734
720
707
686
665
641
624
605
581
558
531
508
489
460
435
408
393
375
354
335
314
299
284
266
251
236
229
216
200
184
165
150
130
105
77
50
27
-4
-37
-72
-108
-140
-177
-215
-254
-286
-313
-344
-373
-402
-429
-451
-477
-500
-525
-538
-550
-568
-582
-598
-613
-626
-646
-666
-690
-706
-725
-752
-778
-809
-839
-865
-902
-935
-970
-995
-1023
-1052
-1079
-1106
-1128
-1149
-1174
-1197
-1219
-1231
-1247
-1264
-1278
-1291
-1297
-1304
-1314
-1324
-1331
-1332
-1340
-1350
-1362
-1376
-1385
-1400
-1418
-1438
-1455
-1467
-1485
-1503
-1523
-1541
-1554
-1573
-1588
-1607
-1613
-1618
-1628
-1634
-1641
-1644
-1643
-1646
-1645
-1648
-1639
-1631
-1628
-1622
-1620
-1614
-1606
-1607
-1608
-1611
-1607
-1608
-1614
-1620
-1627
-1631
-1635
-1645
-1653
-1659
-1656
-1657
-1660
-1662
-1663
-1659
-1657
-1656
-1654
-1646
-1632
-1623
-1612
-1602
-1592
-1576
-1566
-1558
-1551
-1541
-1529
-1524
-1523
-1525
-1529
-1531
-1543
-1555
-1573
-1580
-1588
-1603
-1616
-1630
-1640
-1646
-1655
-1662
-1670
-1666
-1664
-1665
-1662
-1662
-1654
-1643
-1636
-1625
-1614
-1593
-1574
-1559
-1543
-1529
-1512
-1497
-1489
-1482
-1475
-1462
-1457
-1454
-1451
-1449
-1444
-1441
-1441
-1442
-1437
-1427
-1423
-1419
-1415
-1411
-1400
-1394
-1387
-1380
-1367
-1349
-1335
-1319
-1306
-1292
-1273
-1263
-1252
-1246
-1231
-1217
-1212
-1205
-1202
-1198
-1192
-1192
-1191
-1194
-1185
-1179
-1179
-1175
-1174
-1169
-1161
-1160
-1156
-1151
-1138
-1127
-1117
-1104
-1091
-1071
-1050
-1035
-1018
-1001
-977
-961
-947
-934
-924
-911
-902
-897
-895
-889
-879
-876
-874
-872
-870
-862
-857
-853
-850
-841
-829
-822
-815
-808
-798
-781
-772
-760
-750
-728
-706
-689
-671
-656
-639
-619
-608
-596
-590
-572
-559
-555
-548
-544
-537
-529
-525
-519
-513
-498
-486
-475
-462
-451
-435
-419
-407
-393
-377
-352
-330
-308
-284
-261
-232
-206
-184
-165
-142
-116
-99
-84
-72
-61
-49
-41
-36
-32
-23
-11
-5
2
7
14
27
31
39
43
59
74
85
98
110
124
142
154
170
181
205
224
235
249
258
269
278
279
279
278
281
280
275
270
262
258
253
243
235
230
233
231
228
227
227
234
238
241
243
254
269
279
288
297
305
315
321
325
324
327
330
323
317
306
295
288
272
257
239
231
223
212
202
192
186
185
177
173
166
174
179
181
188
193
203
214
219
225
230
242
248
249
248
244
243
239
229
218
208
204
194
181
168
154
145
133
120
105
97
93
85
78
72
67
66
64
62
58
64
71
71
71
67
65
66
58
50
38
31
22
7
-8
-26
-41
-52
-73
-91
-111
-117
-126
-138
-147
-157
-163
-167
-172
-176
-178
-170
-166
-164
-161
-160
-155
-152
-155
-159
-161
-158
-162
-170
-179
-190
-196
-207
-220
-234
-242
-246
-255
-263
-270
-276
-277
-279
-281
-286
-278
-269
-265
-258
-253
-244
-231
-223
-214
-207
-193
-181
-176
-170
-168
-165
-160
-167
-171
-181
-180
-184
-193
-200
-210
-215
-220
-228
-234
-238
-232
-231
-233
-233
-233
-228
-222
-220
-217
-209
-193
-184
-176
-168
-161
-151
-146
-145
-147
-145
-141
-143
-147
-154
-161
-165
-174
-183
-195
-196
-196
-203
-206
-210
-211
-206
-207
-205
-204
-193
-181
-173
-161
-152
-138
-120
-111
-100
-93
-76
-64
-57
-51
-49
-46
-44
-49
-55
-60
-58
-61
-67
-71
-77
-76
-77
-80
-84
-83
-74
-71
-68
-65
-61
-50
-43
-35
-27
-12
7
22
35
46
58
72
79
87
89
103
117
123
134
144
159
181
200
224
250
291
335
381
435
492
557
631
701
779
861
957
1056
1157
1262
1368
1480
1593
1703
1816
1930
2054
2174
2293
2418
2548
2691
2839
2992
3152
3323
3506
3689
3878
4072
4271
4479
4685
4890
5094
5301
5508
5707
5902
6093
6280
6468
6640
6804
6952
7096
7220
7318
7400
7459
7502
7531
7536
7526
7496
7459
7404
7327
7235
7118
6984
6832
6652
6455
6241
6020
5779
5518
5241
4946
4639
4317
3982
3640
3289
2933
2557
2169
1773
1373
979
589
205
-167
-522
-858
-1186
-1499
-1798
-2086
-2356
-2618
-2870
-3112
-3338
-3547
-3744
-3925
-4088
-4228
-4340
-4437
-4510
-4567
-4592
-4599
-4592
-4564
-4521
-4462
-4387
-4309
-4220
-4127
-4018
-3908
-3802
-3690
-3581
-3468
-3353
-3248
-3142
-3038
-2927
-2822
-2721
-2622
-2526
-2427
-2330
-2239
-2150
-2060
-1965
-1877
-1794
-1712
-1632
-1550
-1473
-1401
-1333
-1264
-1193
-1134
-1080
-1033
-992
-951
-920
-896
-878
-860
-844
-836
-829
-828
-825
-818
-822
-823
-828
-820
-813
-811
-805
-800
-792
-779
-771
-759
-750
-727
-705
-689
-669
-652
-633
-613
-602
-590
-581
-568
-560
-559
-558
-561
-562
-565
-573
-581
-588
-586
-590
-593
-595
-596
-591
-588
-586
-583
-571
-553
-541
-526
-511
-493
-471
-450
-431
-414
-393
-371
-355
-340
-331
-322
-310
-310
-308
-313
-308
-304
-304
-303
-304
-301
-294
-293
-288
-285
-269
-255
-246
-232
-220
-203
-185
-170
-155
-139
-114
-93
-75
-57
-42
-24
-9
-1
5
10
21
25
24
22
18
19
16
10
2
2
8
8
10
14
19
29
36
45
53
68
87
102
120
136
154
177
189
203
210
226
238
243
248
249
251
255
249
246
239
246
248
245
246
246
250
256
259
265
272
288
301
313
327
339
356
373
387
401
417
438
451
462
471
478
488
492
493
490
493
498
496
494
492
491
493
493
494
493
502
513
519
529
536
547
565
575
588
600
622
643
660
677
691
706
723
729
737
738
751
756
756
757
755
756
758
756
755
756
765
771
776
784
792
805
819
830
841
857
880
898
916
933
951
973
990
1006
1019
1037
1057
1070
1082
1091
1098
1107
1110
1111
1108
1112
1117
1115
1117
1116
1118
1127
1130
1136
1140
1155
1170
1180
1194
1204
1219
1238
1248
1263
1274
1296
1313
1323
1332
1336
1341
1344
1340
1333
1325
1322
1312
1299
1286
1271
1260
1248
1232
1217
1208
1207
1203
1199
1198
1199
1208
1214
1220
1226
1240
1258
1272
1287
1301
1314
1332
1343
1354
1359
1372
1383
1384
1386
1382
1378
1377
1367
1359
1348
1346
1342
1334
1328
1319
1315
1316
1309
1307
1303
1311
1316
1318
1323
1327
1335
1343
1346
1351
1354
1364
1368
1368
1366
1360
1355
1346
1331
1313
1297
1286
1268
1249
1230
1211
1198
1180
1163
1146
1137
1131
1120
1110
1101
1092
1089
1081
1075
1067
1069
1072
1068
1065
1059
1054
1051
1041
1029
1013
1004
990
967
944
916
889
866
833
802
770
749
724
698
673
648
627
608
585
565
546
535
520
503
486
469
457
442
423
402
384
370
347
322
293
263
236
202
165
124
89
57
22
-14
-49
-81
-106
-136
-162
-192
-207
-222
-244
-261
-281
-299
-313
-332
-349
-368
-377
-388
-407
-425
-449
-472
-493
-527
-560
-597
-627
-662
-702
-741
-782
-819
-856
-897
-935
-971
-997
-1027
-1058
-1087
-1116
-1138
-1160
-1184
-1208
-1226
-1237
-1254
-1271
-1288
-1306
-1320
-1340
-1363
-1389
-1412
-1434
-1462
-1492
-1524
-1556
-1584
-1620
-1653
-1690
-1715
-1739
-1768
-1793
-1818
-1838
-1853
-1873
-1889
-1907
-1912
-1918
-1928
-1934
-1940
-1942
-1939
-1942
-1942
-1942
-1936
-1934
-1935
-1935
-1939
-1940
-1943
-1953
-1963
-1973
-1976
-1985
-1996
-2007
-2018
-2024
-2032
-2039
-2046
-2045
-2037
-2033
-2028
-2021
-2013
-1998
-1985
-1973
-1960
-1941
-1917
-1897
-1878
-1861
-1845
-1825
-1815
-1806
-1803
-1791
-1783
-1782
-1782
-1785
-1787
-1785
-1789
-1792
-1797
-1790
-1785
-1785
-1780
-1777
-1768
-1755
-1747
-1735
-1722
-1700
-1679
-1659
-1637
-1615
-1589
-1564
-1547
-1531
-1516
-1494
-1480
-1469
-1459
-1453
-1442
-1437
-1435
-1434
-1429
-1418
-1413
-1408
-1403
-1397
-1384
-1374
-1363
-1352
-1335
-1314
-1297
-1279
-1262
-1242
-1216
-1199
-1178
-1161
-1133
-1106
-1086
-1066
-1050
-1032
-1013
-1002
-991
-986
-970
-959
-957
-951
-950
-945
-938
-938
-936
-933
-921
-912
-906
-898
-892
-880
-869
-862
-853
-842
-822
-807
-794
-781
-768
-752
-741
-733
-727
-718
-706
-702
-700
-702
-705
-705
-709
-714
-721
-723
-722
-726
-728
-730
-730
-723
-724
-721
-721
-710
-699
-691
-680
-670
-655
-635
-622
-606
-595
-572
-555
-545
-532
-524
-515
-506
-504
-503
-504
-498
-497
-499
-500
-504
-504
-504
-508
-510
-510
-502
-499
-497
-493
-489
-479
-473
-466
-460
-447
-428
-416
-404
-394
-385
-374
-367
-362
-360
-355
-349
-350
-352
-358
-363
-364
-374
-382
-394
-397
-399
-406
-411
-418
-421
-419
-424
-424
-426
-414
-405
-399
-390
-381
-369
-355
-346
-336
-327
-312
-303
-298
-294
-294
-291
-290
-297
-305
-311
-310
-315
-322
-329
-337
-338
-343
-349
-356
-355
-349
-348
-347
-345
-343
-335
-329
-321
-313
-298
-280
-271
-260
-252
-244
-231
-229
-226
-227
-222
-219
-223
-225
-230
-232
-229
-236
-239
-245
-238
-235
-237
-235
-236
-232
-228
-227
-224
-219
-205
-194
-186
-176
-167
-154
-143
-136
-130
-123
-111
-106
-105
-105
-107
-107
-112
-120
-131
-136
-138
-145
-152
-158
-164
-165
-169
-171
-176
-170
-162
-160
-154
-150
-142
-127
-119
-109
-102
-87
-74
-68
-60
-56
-50
-41
-44
-45
-51
-46
-46
-50
-53
-58
-59
-59
-62
-63
-63
-54
-49
-47
-42
-38
-29
-20
-14
-7
4
24
37
50
62
72
86
94
97
97
101
106
105
101
95
90
87
80
72
61
61
61
55
53
49
48
51
49
50
49
58
66
72
80
87
98
112
115
121
124
137
145
147
148
145
143
140
130
120
112
111
104
95
89
82
80
77
71
65
64
70
70
71
73
76
86
92
98
104
115
129
137
144
148
151
155
152
147
137
136
132
121
113
102
93
87
76
67
56
55
53
47
45
42
42
48
46
47
49
60
69
74
80
83
90
95
94
93
90
95
92
85
77
66
60
50
37
24
15
12
3
-6
-15
-23
-26
-32
-39
-47
-49
-46
-48
-48
-49
-48
-42
-43
-42
-47
-40
-36
-40
-42
-48
-53
-56
-67
-78
-94
-101
-110
-126
-137
-152
-163
-169
-181
-190
-199
-198
-200
-204
-207
-211
-209
-207
-208
-207
-204
-192
-185
-180
-174
-171
-164
-161
-163
-168
-170
-168
-174
-183
-193
-203
-208
-220
-233
-247
-256
-261
-269
-278
-287
-294
-294
-302
-306
-312
-306
-299
-297
-292
-288
-282
-272
-270
-266
-267
-258
-254
-257
-258
-265
-269
-273
-285
-296
-308
-312
-320
-331
-340
-350
-356
-361
-370
-377
-382
-377
-376
-376
-374
-372
-363
-356
-351
-346
-336
-321
-312
-302
-295
-289
-280
-277
-277
-279
-279
-276
-280
-284
-291
-296
-295
-301
-304
-310
-304
-298
-297
-294
-293
-289
-280
-277
-269
-263
-243
-224
-211
-193
-178
-160
-140
-127
-114
-102
-84
-71
-61
-53
-47
-37
-29
-26
-23
-19
-7
-1
3
8
12
21
28
32
36
46
63
74
86
98
111
130
145
159
172
190
211
225
240
251
263
280
288
299
307
327
347
364
386
409
437
473
506
548
592
655
720
783
854
927
1008
1096
1185
1280
1381
1492
1602
1711
1823
1935
2054
2175
2291
2409
2530
2663
2798
2938
3087
3245
3417
3593
3772
3953
4145
4345
4543
4743
4943
5143
5347
5546
5742
5933
6130
6327
6518
6709
6893
7072
7247
7400
7542
7666
7784
7886
7967
8036
8091
8136
8171
8185
8189
8174
8156
8114
8044
7956
7842
7712
7562
7386
7191
6972
6736
6472
6181
5870
5538
5194
4835
4452
4048
3624
3189
2732
2265
1795
1326
869
419
-21
-447
-852
-1238
-1614
-1976
-2325
-2659
-2977
-3283
-3575
-3853
-4103
-4326
-4528
-4698
-4842
-4954
-5034
-5095
-5129
-5141
-5121
-5080
-5025
-4953
-4869
-4773
-4663
-4555
-4439
-4323
-4193
-4066
-3945
-3822
-3704
-3585
-3467
-3356
-3247
-3141
-3029
-2923
-2822
-2723
-2628
-2530
-2436
-2348
-2262
-2174
-2080
-1993
-1908
-1825
-1743
-1658
-1579
-1505
-1437
-1366
-1296
-1237
-1183
-1135
-1092
-1051
-1018
-991
-973
-950
-930
-921
-911
-908
-903
-895
-896
-895
-897
-890
-882
-877
-868
-861
-848
-828
-816
-798
-780
-748
-720
-695
-669
-645
-620
-596
-579
-564
-551
-532
-521
-515
-510
-509
-505
-505
-510
-515
-517
-512
-513
-515
-516
-517
-511
-507
-503
-499
-487
-469
-454
-438
-421
-405
-386
-371
-357
-348
-331
-315
-308
-300
-297
-294
-289
-292
-295
-302
-301
-300
-304
-304
-307
-306
-300
-304
-303
-303
-290
-280
-272
-260
-248
-230
-210
-192
-172
-153
-125
-103
-86
-69
-55
-39
-26
-20
-17
-12
-3
-1
-2
-3
-5
-1
-2
-3
-6
-1
8
13
19
25
33
46
55
66
75
95
117
132
150
164
179
198
209
220
226
239
248
250
252
249
248
252
245
241
235
240
242
242
244
245
251
259
264
272
282
301
317
331
347
363
384
402
416
428
442
461
472
480
485
486
490
488
483
475
473
473
469
465
460
458
462
462
463
461
472
484
491
501
509
521
536
547
560
571
591
609
620
634
642
653
665
667
669
668
674
675
672
670
667
667
667
662
660
659
668
672
675
680
684
695
704
711
718
730
750
764
778
790
802
818
827
833
836
842
849
849
846
842
836
835
825
818
807
807
808
802
801
799
799
803
803
805
805
817
828
834
844
852
865
881
891
903
914
932
946
956
965
970
977
982
979
975
971
974
970
963
956
949
946
942
935
930
930
937
939
943
947
953
965
975
984
994
1010
1029
1043
1056
1067
1077
1091
1096
1101
1098
1104
1107
1102
1096
1087
1079
1073
1061
1051
1038
1038
1036
1028
1026
1020
1019
1020
1016
1015
1014
1021
1026
1028
1033
1036
1043
1049
1048
1047
1046
1052
1050
1044
1036
1024
1015
1001
982
962
948
937
921
903
886
870
859
844
829
813
803
797
787
778
767
759
758
749
743
734
736
735
727
719
708
698
689
671
655
633
621
605
581
560
536
515
495
470
448
426
412
394
374
355
335
319
304
285
268
253
248
238
227
216
204
195
182
166
147
132
121
102
82
60
36
15
-9
-36
-64
-88
-107
-131
-153
-176
-196
-210
-232
-251
-272
-282
-292
-306
-317
-329
-338
-343
-355
-365
-379
-381
-387
-402
-415
-433
-449
-465
-489
-513
-539
-557
-580
-606
-632
-659
-683
-706
-735
-763
-788
-805
-828
-851
-874
-896
-913
-933
-953
-974
-987
-995
-1008
-1021
-1035
-1050
-1061
-1077
-1097
-1119
-1137
-1154
-1179
-1204
-1232
-1258
-1277
-1306
-1332
-1360
-1378
-1394
-1414
-1431
-1449
-1463
-1472
-1487
-1496
-1509
-1506
-1506
-1510
-1509
-1509
-1505
-1500
-1500
-1500
-1500
-1493
-1493
-1497
-1502
-1511
-1517
-1525
-1539
-1552
-1564
-1569
-1580
-1593
-1605
-1616
-1622
-1630
-1640
-1651
-1653
-1651
-1653
-1653
-1651
-1648
-1640
-1632
-1624
-1617
-1603
-1588
-1580
-1569
-1563
-1557
-1548
-1549
-1550
-1555
-1552
-1551
-1555
-1557
-1562
-1564
-1562
-1569
-1571
-1576
-1568
-1563
-1563
-1560
-1557
-1550
-1542
-1537
-1529
-1519
-1500
-1483
-1468
-1452
-1438
-1419
-1403
-1392
-1382
-1371
-1355
-1346
-1341
-1338
-1337
-1332
-1332
-1332
-1335
-1332
-1325
-1323
-1320
-1318
-1314
-1306
-1301
-1295
-1291
-1277
-1261
-1250
-1235
-1223
-1206
-1184
-1169
-1153
-1140
-1118
-1098
-1084
-1069
-1058
-1046
-1032
-1029
-1024
-1024
-1013
-1007
-1005
-1003
-1002
-998
-993
-992
-990
-988
-977
-969
-964
-956
-949
-937
-925
-916
-906
-892
-870
-854
-839
-825
-812
-795
-784
-776
-770
-761
-749
-744
-741
-738
-736
-729
-727
-724
-723
-711
-697
-689
-675
-661
-641
-612
-587
-556
-521
-471
-416
-358
-291
-219
-136
-42
49
148
248
363
475
585
696
807
922
1037
1150
1267
1387
1521
1655
1792
1936
2082
2237
2393
2549
2708
2874
3052
3231
3415
3604
3798
4001
4202
4404
4605
4811
5019
5217
5412
5606
5798
5990
6172
6351
6521
6692
6853
6995
7125
7235
7331
7413
7473
7518
7544
7561
7559
7532
7491
7426
7346
7248
7122
6979
6813
6637
6438
6219
5986
5737
5476
5200
4904
4595
4270
3930
3556
3143
2690
2191
1656
1082
475
-156
-798
-1441
-2088
-2726
-3347
-3944
-4505
-5035
-5524
-5970
-6363
-6701
-6993
-7236
-7431
-7577
-7673
-7733
-7751
-7735
-7672
-7578
-7465
-7325
-7169
-6995
-6806
-6612
-6409
-6203
-5984
-5764
-5548
-5328
-5109
-4886
-4660
-4443
-4225
-4010
-3789
-3574
-3366
-3162
-2965
-2769
-2578
-2398
-2222
-2052
-1881
-1723
-1576
-1438
-1310
-1186
-1075
-976
-887
-802
-718
-648
-585
-527
-473
-418
-371
-328
-289
-247
-203
-166
-132
-101
-71
-36
-10
17
39
72
103
128
155
179
203
229
246
264
276
298
316
326
338
344
354
365
367
373
377
389
398
405
412
419
429
440
445
452
459
474
484
491
500
506
518
527
533
536
543
554
558
560
560
559
561
556
550
541
535
533
524
516
507
499
497
486
480
470
472
472
468
465
461
460
462
459
459
456
466
473
474
478
478
481
485
482
478
471
470
464
453
442
426
415
403
386
370
355
348
337
324
312
299
292
283
273
264
262
266
266
269
272
277
288
297
305
312
324
338
346
353
356
360
369
366
366
361
366
370
367
366
364
366
371
370
373
371
383
393
397
407
415
427
442
451
462
474
492
507
518
530
538
550
560
562
562
562
567
564
559
554
547
546
542
535
527
527
532
531
531
531
532
538
542
547
552
563
579
590
604
615
629
647
655
665
670
684
695
700
704
704
705
709
705
704
699
706
710
708
710
710
713
717
717
719
721
732
741
747
755
763
776
790
799
809
821
839
851
861
868
874
884
887
886
882
883
888
885
882
878
874
875
874
874
872
878
887
891
897
901
908
922
928
939
947
965
984
999
1014
1026
1040
1056
1061
1067
1067
1079
1085
1083
1082
1078
1077
1077
1072
1068
1065
1070
1073
1072
1074
1075
1082
1088
1090
1093
1100
1114
1125
1134
1145
1155
1170
1181
1187
1191
1199
1209
1212
1211
1208
1203
1199
1191
1181
1167
1161
1156
1145
1136
1125
1117
1114
1104
1097
1088
1089
1091
1089
1090
1090
1095
1105
1106
1112
1115
1131
1142
1147
1153
1155
1160
1162
1159
1155
1151
1153
1149
1142
1136
1127
1122
1115
1105
1095
1089
1091
1088
1085
1083
1080
1085
1087
1089
1091
1100
1113
1122
1131
1139
1147
1157
1161
1164
1163
1168
1173
1168
1163
1153
1142
1135
1120
1104
1084
1073
1060
1043
1028
1011
997
989
971
958
941
937
929
916
907
896
888
880
867
855
841
833
819
799
779
754
732
707
675
641
610
584
553
521
488
455
428
397
366
335
311
292
270
249
229
211
198
181
167
150
144
140
128
118
105
94
86
70
55
35
22
5
-19
-42
-71
-96
-120
-153
-184
-217
-239
-264
-292
-319
-347
-371
-395
-422
-448
-474
-490
-510
-533
-555
-578
-597
-619
-646
-674
-700
-722
-752
-784
-820
-857
-891
-932
-976
-1020
-1060
-1095
-1136
-1176
-1214
-1251
-1281
-1316
-1349
-1384
-1407
-1428
-1455
-1478
-1502
-1521
-1536
-1556
-1574
-1593
-1603
-1615
-1633
-1649
-1670
-1688
-1704
-1730
-1755
-1784
-1804
-1828
-1854
-1880
-1908
-1931
-1953
-1979
-2002
-2022
-2032
-2046
-2060
-2071
-2082
-2086
-2090
-2097
-2102
-2101
-2092
-2088
-2083
-2080
-2077
-2071
-2070
-2072
-2076
-2077
-2076
-2081
-2088
-2096
-2105
-2109
-2121
-2129
-2141
-2141
-2142
-2147
-2149
-2153
-2153
-2149
-2150
-2148
-2147
-2134
-2122
-2114
-2101
-2090
-2074
-2052
-2039
-2022
-2006
-1982
-1963
-1947
-1932
-1921
-1908
-1896
-1891
-1887
-1883
-1872
-1867
-1866
-1864
-1863
-1856
-1852
-1851
-1850
-1843
-1829
-1821
-1811
-1801
-1789
-1770
-1753
-1735
-1716
-1691
-1661
-1636
-1611
-1588
-1564
-1536
-1517
-1496
-1483
-1459
-1438
-1426
-1413
-1404
-1393
-1380
-1373
-1365
-1359
-1342
-1327
-1318
-1305
-1294
-1278
-1258
-1245
-1229
-1213
-1189
-1166
-1146
-1124
-1105
-1081
-1058
-1043
-1028
-1013
-992
-979
-970
-963
-960
-953
-952
-955
-959
-959
-953
-954
-955
-956
-957
-951
-949
-948
-947
-941
-931
-925
-918
-911
-901
-884
-875
-863
-855
-837
-821
-813
-804
-799
-793
-786
-787
-788
-794
-789
-789
-795
-798
-804
-805
-805
-809
-810
-811
-803
-798
-795
-789
-785
-775
-765
-758
-748
-737
-718
-704
-691
-679
-668
-653
-642
-635
-630
-622
-610
-606
-604
-604
-606
-604
-605
-608
-612
-611
-605
-604
-601
-600
-595
-584
-581
-575
-572
-557
-542
-531
-517
-505
-489
-470
-458
-443
-434
-412
-394
-385
-374
-367
-358
-350
-348
-347
-347
-339
-336
-337
-337
-339
-335
-331
-332
-331
-328
-315
-308
-301
-293
-284
-269
-257
-246
-236
-220
-198
-184
-171
-161
-152
-140
-134
-130
-131
-127
-122
-125
-127
-133
-137
-135
-144
-150
-158
-156
-154
-156
-157
-159
-157
-150
-150
-146
-144
-127
-114
-106
-94
-84
-71
-59
-52
-44
-39
-27
-21
-21
-21
-26
-29
-34
-45
-56
-65
-66
-74
-82
-91
-99
-102
-107
-113
-120
-118
-111
-110
-108
-104
-100
-91
-83
-76
-71
-60
-47
-41
-35
-34
-33
-28
-32
-36
-44
-45
-47
-54
-59
-67
-72
-72
-82
-86
-94
-87
-84
-85
-83
-81
-76
-70
-67
-63
-59
-45
-36
-29
-21
-16
-7
0
0
0
1
7
5
1
-5
-12
-15
-24
-34
-48
-55
-58
-67
-75
-83
-91
-95
-101
-108
-116
-115
-112
-115
-113
-112
-108
-98
-96
-93
-93
-85
-79
-78
-78
-82
-85
-86
-99
-110
-125
-129
-138
-151
-163
-176
-184
-192
-204
-214
-223
-223
-226
-232
-235
-238
-236
-233
-233
-231
-225
-212
-207
-203
-202
-201
-196
-197
-202
-210
-214
-215
-224
-234
-243
-252
-258
-267
-276
-287
-287
-286
-291
-291
-294
-293
-287
-286
-283
-279
-266
-251
-240
-226
-214
-200
-182
-176
-167
-162
-147
-139
-137
-135
-137
-138
-140
-148
-155
-163
-163
-169
-177
-183
-191
-194
-198
-206
-213
-214
-208
-207
-206
-204
-201
-192
-186
-181
-176
-166
-153
-147
-141
-138
-136
-132
-134
-138
-148
-149
-151
-160
-166
-176
-183
-187
-197
-204
-213
-213
-214
-220
-222
-226
-226
-220
-224
-222
-221
-208
-198
-192
-184
-178
-169
-161
-158
-155
-153
-145
-142
-144
-146
-151
-151
-153
-159
-166
-169
-164
-166
-167
-168
-169
-164
-162
-160
-158
-150
-137
-127
-117
-106
-94
-76
-66
-55
-48
-32
-18
-12
-6
-5
-3
2
-1
-2
-6
-1
1
-2
-3
-8
-8
-6
-12
-15
-19
-12
-8
-6
-3
0
7
16
21
29
37
55
66
75
84
90
99
104
104
102
102
106
102
97
90
83
81
74
66
59
57
60
59
58
57
58
66
67
72
74
89
104
114
126
136
147
161
168
176
179
191
198
197
198
192
189
189
180
173
166
167
165
160
158
154
154
155
152
151
153
163
169
174
181
188
201
212
220
226
238
255
264
272
277
281
288
289
287
282
281
283
280
276
270
265
266
259
256
247
252
256
254
256
256
260
267
270
276
280
297
311
318
329
336
346
357
360
364
364
370
371
366
360
352
347
341
328
317
306
304
296
285
275
265
259
251
240
229
225
226
222
220
219
218
223
224
222
220
221
226
224
221
215
210
208
197
187
172
168
162
150
142
132
126
123
115
110
101
107
110
109
113
115
123
133
138
144
150
163
171
175
179
179
181
180
170
159
148
143
131
116
101
84
72
56
39
21
11
5
-6
-15
-24
-32
-35
-39
-43
-47
-44
-38
-36
-32
-32
-31
-25
-29
-32
-40
-41
-44
-56
-67
-83
-97
-108
-126
-141
-160
-165
-174
-187
-196
-207
-213
-217
-225
-230
-233
-226
-221
-218
-212
-207
-195
-183
-176
-168
-160
-145
-137
-132
-129
-129
-126
-129
-136
-145
-148
-147
-152
-157
-161
-164
-162
-161
-161
-161
-155
-144
-139
-131
-125
-116
-101
-94
-84
-77
-60
-45
-36
-27
-22
-15
-6
-8
-8
-14
-8
-8
-15
-19
-27
-31
-36
-45
-53
-61
-60
-63
-68
-71
-75
-74
-75
-79
-82
-83
-74
-71
-68
-65
-61
-53
-51
-51
-54
-52
-47
-49
-52
-56
-62
-66
-75
-84
-96
-101
-106
-117
-125
-135
-142
-142
-148
-151
-156
-150
-143
-139
-131
-124
-112
-92
-80
-61
-44
-13
16
42
73
105
142
183
223
269
319
380
442
504
571
639
714
792
868
950
1038
1136
1229
1321
1416
1512
1617
1720
1825
1931
2049
2177
2307
2446
2592
2746
2911
3077
3245
3412
3588
3767
3939
4113
4282
4451
4623
4785
4947
5104
5268
5431
5589
5750
5905
6059
6210
6344
6474
6592
6713
6821
6916
7006
7090
7172
7249
7312
7365
7405
7435
7440
7418
7372
7302
7214
7103
6965
6802
6616
6409
6168
5899
5607
5293
4967
4617
4247
3853
3440
3010
2559
2098
1632
1169
716
268
-167
-592
-990
-1373
-1749
-2110
-2461
-2798
-3117
-3431
-3730
-4017
-4275
-4509
-4719
-4895
-5042
-5155
-5234
-5296
-5328
-5339
-5315
-5275
-5222
-5151
-5069
-4970
-4861
-4748
-4627
-4501
-4362
-4225
-4088
-3950
-3813
-3673
-3538
-3410
-3286
-3161
-3034
-2917
-2806
-2699
-2596
-2492
-2396
-2304
-2217
-2126
-2034
-1950
-1868
-1787
-1708
-1627
-1556
-1487
-1425
-1355
-1291
-1237
-1184
-1137
-1092
-1046
-1009
-973
-944
-910
-881
-860
-840
-827
-813
-798
-795
-789
-787
-775
-767
-763
-758
-754
-745
-736
-730
-722
-713
-694
-680
-669
-657
-645
-628
-614
-603
-592
-578
-557
-544
-532
-522
-513
-500
-493
-489
-488
-484
-477
-475
-475
-476
-476
-472
-474
-474
-478
-469
-461
-458
-452
-448
-440
-428
-421
-411
-403
-384
-366
-352
-334
-318
-298
-274
-260
-243
-228
-205
-187
-173
-160
-150
-138
-128
-125
-121
-117
-104
-98
-95
-91
-88
-78
-71
-66
-62
-52
-36
-25
-13
-2
10
28
42
57
72
90
112
128
142
154
165
179
184
188
185
192
196
191
189
184
181
181
175
173
167
173
178
178
182
183
190
200
204
211
220
238
254
269
285
299
317
334
344
354
364
380
389
393
397
398
402
403
400
396
397
404
404
405
407
409
417
421
425
428
438
452
462
473
485
499
519
532
547
557
578
596
607
618
625
633
643
646
649
647
658
664
664
667
668
673
680
683
688
694
708
719
728
739
749
764
780
791
804
819
842
861
877
891
903
919
930
936
939
946
956
958
958
955
951
951
947
941
933
931
934
932
931
928
928
935
933
936
935
946
958
966
978
988
1001
1018
1028
1039
1046
1064
1078
1083
1089
1090
1093
1095
1089
1083
1076
1076
1072
1064
1057
1048
1045
1041
1032
1024
1020
1024
1023
1021
1020
1020
1027
1032
1036
1038
1047
1059
1064
1067
1067
1066
1067
1062
1054
1043
1035
1028
1013
999
980
963
950
927
907
883
869
853
833
815
795
779
767
749
736
721
721
719
714
712
709
709
709
704
699
692
691
685
674
663
648
637
624
606
588
573
564
551
536
523
509
501
491
480
467
463
463
458
453
449
447
449
449
447
442
444
448
444
440
431
422
418
402
388
368
357
345
327
311
291
275
263
243
227
207
200
191
177
166
155
147
140
130
121
113
113
109
100
92
81
73
63
46
27
9
-5
-27
-52
-79
-107
-130
-159
-188
-218
-241
-257
-279
-299
-319
-337
-351
-366
-380
-397
-404
-407
-415
-418
-424
-425
-421
-426
-429
-436
-436
-438
-447
-455
-468
-479
-488
-507
-523
-543
-551
-563
-580
-594
-609
-620
-630
-643
-654
-664
-665
-669
-675
-679
-684
-683
-684
-688
-692
-693
-688
-690
-696
-702
-712
-717
-729
-744
-762
-775
-787
-805
-823
-842
-861
-876
-893
-910
-929
-937
-943
-954
-962
-972
-978
-979
-986
-991
-997
-993
-988
-988
-986
-986
-984
-979
-985
-988
-995
-993
-997
-1008
-1019
-1033
-1046
-1059
-1077
-1093
-1109
-1115
-1126
-1138
-1148
-1159
-1163
-1168
-1175
-1180
-1180
-1172
-1167
-1162
-1156
-1149
-1135
-1126
-1117
-1110
-1099
-1084
-1076
-1069
-1064
-1061
-1056
-1058
-1059
-1066
-1061
-1057
-1060
-1059
-1061
-1059
-1052
-1051
-1048
-1046
-1034
-1022
-1014
-1001
-992
-977
-957
-945
-929
-915
-891
-871
-855
-840
-828
-813
-800
-794
-789
-787
-779
-778
-782
-786
-792
-792
-795
-802
-808
-809
-803
-802
-801
-800
-798
-790
-787
-784
-782
-774
-761
-753
-745
-738
-730
-718
-715
-711
-714
-708
-705
-711
-716
-725
-733
-739
-752
-762
-775
-778
-782
-791
-794
-798
-796
-788
-788
-783
-779
-762
-747
-734
-719
-703
-684
-665
-651
-635
-620
-598
-583
-572
-562
-555
-545
-541
-541
-544
-544
-540
-543
-546
-551
-555
-553
-555
-558
-561
-557
-548
-543
-537
-531
-522
-507
-498
-486
-476
-454
-432
-417
-399
-386
-372
-357
-350
-343
-341
-331
-325
-327
-328
-334
-338
-339
-349
-357
-365
-364
-366
-370
-372
-375
-373
-369
-370
-368
-366
-354
-347
-341
-334
-328
-317
-309
-305
-303
-298
-290
-290
-292
-296
-303
-307
-317
-330
-345
-356
-363
-375
-386
-397
-406
-408
-416
-419
-426
-420
-413
-412
-407
-404
-399
-390
-386
-379
-375
-361
-350
-347
-343
-345
-345
-345
-355
-366
-379
-386
-398
-413
-428
-445
-457
-469
-485
-499
-509
-509
-513
-517
-519
-520
-514
-510
-508
-505
-496
-481
-471
-462
-453
-444
-431
-424
-418
-414
-407
-399
-398
-399
-403
-407
-406
-415
-422
-433
-433
-432
-436
-436
-438
-437
-431
-431
-427
-425
-410
-397
-389
-377
-367
-353
-335
-324
-312
-301
-285
-274
-268
-264
-263
-261
-262
-270
-278
-287
-287
-293
-302
-309
-317
-319
-324
-330
-336
-335
-328
-327
-324
-321
-316
-306
-299
-291
-284
-272
-256
-247
-236
-230
-224
-213
-213
-213
-218
-215
-215
-222
-229
-240
-248
-253
-264
-271
-280
-275
-272
-273
-269
-266
-258
-248
-243
-235
-228
-212
-199
-188
-176
-165
-151
-138
-130
-122
-114
-100
-93
-90
-89
-91
-89
-92
-100
-109
-111
-110
-115
-120
-125
-128
-126
-125
-124
-123
-114
-101
-93
-81
-71
-59
-40
-30
-17
-7
12
30
42
53
60
68
77
77
77
73
81
84
80
79
76
77
78
76
75
76
85
91
94
100
105
116
126
132
140
150
169
183
195
206
216
231
240
246
248
255
264
265
263
258
251
246
237
225
211
202
195
181
170
156
145
141
129
120
109
109
110
107
108
107
112
121
122
127
128
142
150
152
154
153
154
153
146
139
130
130
125
117
109
99
94
88
78
69
64
67
64
60
57
55
60
62
64
66
76
91
99
107
114
119
126
128
127
122
122
121
111
102
88
76
69
55
41
26
20
15
6
1
-6
-8
-5
-10
-11
-14
-4
5
10
18
25
35
46
51
56
60
70
73
71
68
62
58
51
38
24
13
9
-2
-13
-24
-35
-40
-51
-62
-75
-80
-81
-86
-91
-96
-98
-94
-93
-91
-91
-80
-70
-68
-64
-64
-63
-60
-66
-73
-85
-90
-99
-113
-126
-142
-155
-162
-179
-191
-205
-206
-211
-217
-221
-225
-223
-220
-220
-217
-212
-197
-185
-175
-163
-153
-139
-127
-121
-117
-111
-100
-98
-99
-103
-109
-111
-119
-129
-141
-147
-148
-154
-158
-162
-164
-161
-163
-162
-165
-156
-147
-143
-136
-130
-122
-109
-102
-94
-90
-79
-70
-68
-65
-67
-66
-62
-71
-77
-87
-87
-91
-99
-106
-115
-120
-123
-129
-133
-135
-129
-127
-126
-124
-122
-114
-107
-102
-97
-88
-73
-64
-56
-50
-46
-38
-37
-39
-44
-45
-44
-49
-56
-64
-72
-75
-85
-93
-105
-105
-105
-111
-113
-118
-118
-114
-115
-113
-114
-104
-94
-90
-80
-74
-64
-51
-47
-40
-36
-24
-17
-15
-15
-18
-19
-22
-32
-43
-53
-55
-63
-72
-81
-89
-92
-96
-102
-108
-108
-100
-99
-96
-94
-90
-80
-73
-66
-59
-48
-34
-25
-18
-14
-11
-4
-6
-8
-16
-15
-16
-25
-32
-42
-50
-55
-65
-72
-80
-77
-76
-80
-79
-81
-77
-69
-67
-62
-56
-41
-28
-18
-7
2
13
22
25
27
28
35
33
27
18
4
-5
-19
-37
-56
-70
-78
-93
-106
-119
-131
-138
-147
-156
-165
-166
-163
-162
-159
-156
-151
-140
-135
-129
-127
-115
-106
-103
-100
-101
-100
-99
-104
-109
-118
-117
-119
-127
-132
-139
-142
-141
-146
-148
-150
-143
-139
-137
-132
-129
-121
-112
-106
-99
-88
-69
-57
-48
-39
-33
-25
-21
-23
-29
-31
-29
-36
-44
-54
-65
-71
-81
-92
-103
-109
-109
-114
-117
-120
-121
-114
-116
-114
-115
-104
-93
-85
-75
-66
-54
-39
-32
-24
-21
-6
2
2
5
2
1
0
-7
-14
-21
-20
-23
-29
-33
-38
-38
-38
-43
-48
-51
-44
-42
-42
-40
-38
-29
-23
-19
-16
-7
7
12
16
18
17
20
16
9
-1
-8
-13
-25
-35
-49
-61
-67
-81
-92
-106
-109
-112
-119
-122
-127
-126
-121
-121
-116
-113
-94
-78
-67
-52
-41
-26
-11
-2
7
14
27
34
37
38
35
35
34
27
21
16
18
16
13
10
7
10
11
11
11
18
30
38
48
60
73
92
109
127
143
167
194
217
243
268
298
335
365
402
439
492
549
606
669
734
807
888
965
1051
1137
1240
1344
1444
1550
1657
1771
1890
2008
2130
2256
2394
2534
2679
2833
2994
3167
3345
3522
3701
3884
4076
4263
4449
4636
4822
5012
5196
5377
5553
5733
5915
6088
6259
6426
6586
6742
6884
7016
7135
7249
7352
7438
7514
7578
7635
7686
7716
7737
7741
7737
7713
7661
7585
7483
7359
7215
7040
6846
6623
6385
6116
5817
5497
5154
4796
4422
4027
3614
3180
2738
2277
1807
1336
867
412
-33
-468
-885
-1283
-1657
-2021
-2371
-2708
-3032
-3337
-3635
-3921
-4193
-4439
-4658
-4854
-5021
-5159
-5268
-5347
-5403
-5435
-5447
-5429
-5388
-5335
-5262
-5178
-5079
-4965
-4849
-4724
-4594
-4450
-4304
-4161
-4016
-3874
-3731
-3586
-3455
-3323
-3200
-3070
-2949
-2837
-2727
-2624
-2521
-2422
-2331
-2243
-2156
-2065
-1980
-1900
-1821
-1746
-1668
-1592
-1523
-1456
-1389
-1317
-1253
-1193
-1136
-1082
-1026
-980
-938
-904
-867
-830
-804
-782
-765
-752
-738
-732
-727
-727
-718
-707
-704
-697
-693
-685
-671
-662
-649
-637
-616
-593
-574
-551
-531
-507
-479
-459
-436
-417
-388
-364
-347
-331
-318
-305
-293
-288
-284
-283
-274
-272
-273
-274
-277
-274
-273
-274
-274
-268
-254
-244
-233
-221
-207
-187
-171
-156
-141
-121
-98
-81
-65
-51
-40
-27
-22
-18
-20
-12
-6
-10
-11
-16
-20
-20
-26
-29
-34
-29
-24
-24
-18
-15
-8
4
7
14
19
35
49
60
73
86
102
120
132
146
159
180
194
204
214
221
232
238
240
241
244
254
257
259
261
262
270
272
274
275
283
294
302
309
316
325
339
347
359
368
389
410
424
441
454
468
484
492
500
503
514
523
523
525
523
523
527
522
519
515
521
525
525
527
527
531
535
536
538
543
557
568
576
587
597
612
624
633
640
650
665
672
677
680
682
688
688
686
681
682
686
684
682
679
678
683
679
679
674
681
689
690
694
696
701
711
716
723
727
742
754
758
765
768
773
779
776
773
768
770
766
759
752
745
742
739
732
725
720
724
723
720
717
714
716
716
715
714
719
731
737
744
750
756
766
771
774
775
778
782
780
775
767
757
753
739
727
711
707
702
692
686
679
675
674
669
668
664
674
682
684
693
698
709
723
731
740
749
765
777
785
793
798
805
810
808
804
801
805
803
798
793
787
785
781
776
770
771
777
778
780
782
784
792
797
802
806
817
831
841
851
858
867
879
881
885
883
890
893
889
885
877
871
868
858
851
839
841
841
834
832
827
827
828
825
823
821
828
832
834
838
841
847
853
853
852
852
859
859
855
850
843
839
829
815
800
790
784
771
758
744
730
720
708
694
680
671
665
653
643
631
622
619
608
599
587
584
580
569
558
544
532
521
501
483
458
444
425
399
375
347
322
297
267
239
211
191
168
144
121
98
80
63
42
23
9
3
-7
-18
-29
-41
-48
-60
-74
-90
-102
-111
-127
-145
-165
-186
-204
-225
-248
-274
-292
-309
-332
-353
-376
-398
-413
-437
-458
-480
-493
-505
-521
-533
-546
-555
-559
-571
-579
-592
-593
-600
-614
-626
-643
-658
-674
-696
-719
-742
-759
-780
-805
-828
-854
-875
-897
-924
-951
-974
-989
-1009
-1030
-1049
-1067
-1079
-1093
-1107
-1120
-1126
-1127
-1133
-1140
-1147
-1156
-1162
-1173
-1186
-1203
-1213
-1224
-1243
-1260
-1281
-1301
-1315
-1338
-1359
-1382
-1396
-1408
-1424
-1439
-1455
-1466
-1473
-1488
-1497
-1509
-1506
-1506
-1509
-1508
-1506
-1501
-1496
-1494
-1491
-1487
-1477
-1471
-1469
-1467
-1467
-1464
-1464
-1470
-1475
-1478
-1474
-1476
-1480
-1483
-1487
-1486
-1489
-1494
-1500
-1499
-1493
-1493
-1493
-1491
-1488
-1480
-1474
-1468
-1465
-1452
-1439
-1433
-1425
-1421
-1417
-1409
-1411
-1412
-1418
-1418
-1419
-1426
-1431
-1439
-1443
-1443
-1452
-1456
-1463
-1457
-1455
-1455
-1452
-1448
-1440
-1429
-1422
-1411
-1399
-1376
-1356
-1338
-1318
-1301
-1280
-1261
-1247
-1235
-1221
-1202
-1191
-1184
-1179
-1176
-1169
-1168
-1169
-1172
-1169
-1163
-1161
-1159
-1158
-1155
-1147
-1142
-1134
-1129
-1112
-1093
-1080
-1063
-1046
-1027
-1002
-984
-966
-950
-928
-907
-893
-878
-868
-858
-845
-845
-844
-846
-840
-839
-842
-844
-848
-848
-847
-850
-852
-853
-844
-838
-833
-825
-818
-804
-791
-780
-769
-753
-731
-714
-700
-686
-674
-658
-649
-643
-641
-636
-628
-628
-629
-632
-635
-634
-639
-642
-650
-645
-640
-643
-642
-644
-642
-636
-633
-628
-625
-611
-597
-587
-572
-561
-546
-528
-520
-510
-504
-490
-481
-479
-477
-479
-479
-481
-490
-499
-507
-507
-513
-521
-527
-534
-534
-537
-542
-547
-546
-538
-535
-532
-527
-520
-505
-494
-483
-473
-460
-444
-435
-427
-423
-420
-414
-417
-419
-428
-426
-426
-433
-437
-444
-448
-447
-451
-452
-456
-448
-443
-442
-437
-435
-428
-418
-415
-408
-401
-385
-371
-360
-348
-339
-327
-315
-310
-305
-301
-290
-286
-286
-287
-290
-289
-292
-297
-304
-306
-301
-302
-302
-302
-301
-295
-292
-290
-287
-278
-264
-253
-241
-229
-215
-193
-179
-163
-152
-129
-109
-96
-83
-73
-63
-51
-48
-43
-43
-33
-26
-26
-22
-22
-18
-11
-12
-10
-9
1
8
13
20
26
37
49
57
68
80
100
114
125
135
143
154
160
160
156
156
159
154
148
140
131
126
116
105
94
88
86
80
75
68
64
66
60
58
53
61
68
70
76
80
86
96
98
102
102
113
119
118
119
114
112
110
101
93
85
84
80
74
70
66
66
67
63
61
62
72
78
82
89
95
107
117
125
131
143
158
166
173
178
182
187
188
185
178
175
174
165
157
146
137
135
124
116
105
105
105
101
99
95
94
98
96
99
98
112
123
127
134
138
145
152
153
153
153
158
158
152
146
137
132
126
114
104
96
96
91
85
80
76
78
77
76
74
79
89
94
101
108
117
130
139
147
151
161
172
174
177
174
171
173
163
154
141
138
133
122
112
101
94
91
80
73
63
67
67
61
58
52
51
52
48
47
45
52
54
53
52
48
47
44
34
23
12
7
-6
-22
-38
-56
-69
-86
-105
-126
-139
-148
-163
-176
-189
-200
-206
-214
-221
-229
-228
-224
-225
-224
-226
-225
-220
-224
-224
-229
-227
-226
-232
-237
-247
-255
-258
-272
-281
-293
-293
-296
-304
-309
-314
-315
-315
-318
-320
-320
-313
-308
-306
-301
-298
-290
-281
-277
-274
-269
-258
-254
-254
-256
-260
-261
-268
-279
-295
-304
-309
-320
-331
-343
-354
-360
-369
-378
-388
-389
-388
-391
-391
-394
-394
-388
-388
-386
-385
-375
-366
-361
-356
-354
-350
-343
-347
-349
-355
-351
-353
-360
-366
-374
-378
-383
-391
-397
-401
-396
-395
-394
-391
-388
-378
-369
-363
-355
-343
-323
-307
-292
-276
-260
-238
-222
-209
-198
-182
-163
-151
-143
-136
-131
-124
-124
-123
-128
-123
-119
-121
-120
-121
-119
-112
-112
-109
-108
-98
-88
-82
-74
-69
-59
-44
-39
-29
-23
-6
6
13
20
23
29
33
31
28
24
26
21
14
6
-3
-8
-14
-23
-29
-31
-26
-26
-25
-22
-18
-7
0
8
16
30
49
63
77
90
102
117
125
132
132
141
148
145
143
136
130
127
116
107
96
94
92
85
82
77
77
83
81
85
87
100
110
118
129
139
153
168
176
184
191
205
211
212
212
209
209
204
194
182
172
168
158
147
135
125
120
112
105
97
96
100
101
102
103
105
114
117
124
127
142
156
162
170
175
180
187
187
187
182
183
181
172
164
152
144
138
124
112
99
97
93
87
83
79
80
83
82
83
86
100
109
116
125
132
143
150
153
154
157
164
163
159
152
143
137
125
111
95
85
79
68
59
50
43
42
36
32
26
33
40
42
47
51
58
69
74
82
87
100
109
111
115
113
114
115
105
96
85
80
71
58
46
32
22
14
2
-7
-14
-11
-11
-12
-11
-10
-3
3
6
11
22
40
51
62
72
79
91
96
99
98
100
103
100
95
86
78
76
64
54
39
36
31
22
15
7
0
-2
-10
-15
-22
-16
-13
-15
-13
-12
-7
1
2
4
5
13
16
15
14
11
12
13
10
9
11
24
37
52
72
97
133
173
217
267
328
400
471
548
632
722
824
927
1034
1145
1262
1386
1507
1630
1753
1880
2014
2141
2277
2414
2571
2734
2899
3073
3252
3435
3625
3810
4002
4193
4400
4603
4800
5000
5195
5393
5590
5779
5967
6151
6339
6515
6679
6833
6971
7099
7210
7300
7374
7434
7486
7517
7531
7530
7515
7488
7442
7376
7288
7183
7059
6907
6734
6541
6328
6099
5844
5565
5264
4948
4617
4265
3900
3519
3125
2720
2290
1851
1401
958
517
79
-347
-760
-1153
-1527
-1891
-2236
-2571
-2877
-3174
-3463
-3737
-3999
-4241
-4462
-4664
-4836
-4980
-5088
-5172
-5233
-5267
-5281
-5268
-5234
-5186
-5119
-5035
-4930
-4820
-4703
-4579
-4451
-4314
-4179
-4045
-3913
-3775
-3634
-3502
-3372
-3246
-3122
-2998
-2880
-2765
-2655
-2541
-2426
-2320
-2213
-2111
-2008
-1903
-1808
-1714
-1625
-1529
-1437
-1352
-1269
-1191
-1113
-1036
-971
-908
-853
-791
-738
-696
-657
-627
-598
-574
-560
-548
-539
-525
-516
-511
-506
-501
-492
-483
-477
-470
-459
-439
-423
-407
-389
-371
-345
-323
-301
-281
-253
-222
-199
-178
-159
-143
-125
-113
-105
-102
-95
-89
-92
-93
-98
-101
-100
-108
-113
-118
-115
-111
-110
-107
-106
-101
-89
-85
-76
-69
-47
-29
-14
4
20
39
57
69
80
90
105
113
115
115
111
110
106
97
87
80
79
73
66
61
56
57
54
51
46
49
57
60
63
67
72
82
89
97
100
113
124
127
131
129
127
128
118
109
96
90
83
71
62
49
40
37
26
19
12
18
21
22
27
31
39
48
55
63
73
91
105
114
124
129
138
144
143
141
139
141
136
128
118
108
103
93
82
70
66
67
64
62
62
63
69
72
78
82
97
114
126
142
155
172
191
203
216
224
239
251
256
261
261
264
269
263
260
254
258
258
255
255
254
258
263
265
269
275
290
301
309
319
328
343
358
369
381
397
417
430
441
449
455
464
465
463
458
456
456
449
443
436
431
430
425
424
420
430
439
443
452
459
469
485
496
511
523
546
570
588
610
628
648
671
683
696
704
721
732
737
743
744
748
751
749
747
746
753
755
755
759
762
772
781
788
794
806
825
838
851
865
879
900
916
930
941
957
975
986
995
1001
1006
1013
1011
1009
1001
1004
1006
1002
1000
995
993
995
992
991
988
995
1001
1002
1006
1009
1016
1027
1030
1038
1045
1061
1074
1082
1090
1094
1100
1106
1105
1103
1100
1103
1100
1092
1085
1076
1071
1065
1055
1046
1042
1046
1044
1043
1043
1044
1052
1057
1062
1067
1078
1093
1105
1117
1128
1141
1157
1165
1173
1176
1188
1198
1199
1199
1196
1192
1190
1180
1172
1161
1160
1157
1148
1143
1136
1134
1135
1130
1127
1125
1131
1135
1136
1138
1140
1146
1153
1155
1158
1162
1172
1176
1175
1174
1169
1166
1158
1144
1127
1113
1103
1084
1064
1043
1020
1002
979
954
929
908
891
870
849
827
806
793
771
753
730
721
711
696
683
666
650
635
612
590
562
544
521
489
458
421
387
355
315
277
238
207
175
141
109
77
50
25
-5
-32
-57
-73
-92
-113
-132
-151
-165
-181
-200
-221
-236
-248
-268
-288
-312
-337
-360
-388
-420
-455
-486
-515
-549
-583
-619
-652
-680
-715
-747
-782
-805
-829
-858
-884
-911
-935
-955
-980
-1000
-1022
-1031
-1044
-1062
-1078
-1098
-1116
-1133
-1156
-1180
-1206
-1225
-1248
-1277
-1305
-1335
-1361
-1388
-1420
-1450
-1478
-1497
-1520
-1544
-1567
-1590
-1607
-1626
-1646
-1666
-1679
-1685
-1696
-1705
-1714
-1723
-1727
-1737
-1749
-1763
-1773
-1782
-1797
-1812
-1832
-1851
-1864
-1888
-1908
-1931
-1944
-1956
-1973
-1985
-1998
-2006
-2009
-2018
-2022
-2029
-2021
-2015
-2014
-2007
-2002
-1991
-1977
-1967
-1954
-1940
-1919
-1903
-1889
-1875
-1864
-1851
-1840
-1835
-1832
-1829
-1820
-1818
-1817
-1816
-1817
-1812
-1810
-1809
-1809
-1801
-1788
-1780
-1772
-1763
-1753
-1738
-1725
-1711
-1698
-1678
-1654
-1636
-1616
-1600
-1582
-1560
-1549
-1536
-1529
-1514
-1503
-1498
-1493
-1493
-1491
-1486
-1489
-1490
-1494
-1485
-1480
-1479
-1473
-1469
-1460
-1450
-1443
-1433
-1422
-1402
-1385
-1369
-1351
-1334
-1313
-1292
-1278
-1265
-1250
-1229
-1216
-1207
-1199
-1194
-1185
-1182
-1181
-1183
-1179
-1171
-1168
-1165
-1161
-1155
-1144
-1136
-1129
-1124
-1110
-1094
-1084
-1071
-1059
-1045
-1024
-1010
-994
-980
-957
-935
-919
-902
-891
-878
-862
-859
-854
-856
-846
-842
-845
-845
-847
-846
-845
-847
-847
-846
-837
-831
-827
-821
-816
-805
-793
-785
-776
-762
-740
-722
-705
-688
-671
-649
-632
-618
-608
-592
-573
-561
-552
-544
-538
-530
-526
-522
-522
-512
-501
-497
-490
-485
-477
-463
-456
-447
-440
-423
-406
-392
-377
-363
-344
-321
-306
-288
-274
-250
-230
-217
-203
-193
-182
-174
-171
-170
-170
-164
-165
-169
-173
-180
-182
-185
-192
-197
-199
-192
-190
-187
-185
-181
-171
-165
-159
-154
-142
-126
-116
-107
-99
-93
-83
-81
-79
-83
-78
-75
-82
-87
-97
-105
-108
-118
-126
-135
-134
-134
-137
-137
-139
-137
-130
-132
-129
-126
-112
-100
-91
-79
-68
-54
-40
-31
-23
-15
-1
5
7
8
5
5
2
-6
-15
-21
-20
-26
-33
-40
-46
-46
-49
-52
-57
-55
-48
-46
-43
-39
-35
-24
-19
-11
-8
7
20
24
29
30
32
36
32
27
17
15
10
-3
-12
-26
-36
-41
-55
-65
-75
-76
-79
-84
-88
-92
-91
-88
-90
-89
-85
-72
-63
-56
-48
-41
-29
-21
-18
-16
-12
-3
-2
-5
-11
-19
-24
-34
-47
-61
-70
-75
-85
-96
-106
-113
-115
-123
-127
-134
-127
-121
-121
-117
-113
-106
-95
-89
-80
-75
-60
-49
-45
-39
-38
-35
-29
-34
-38
-45
-45
-48
-55
-62
-71
-77
-83
-93
-101
-107
-104
-105
-108
-109
-111
-107
-105
-105
-104
-98
-86
-79
-73
-68
-63
-56
-54
-56
-60
-60
-58
-63
-69
-79
-88
-93
-107
-118
-134
-137
-139
-147
-152
-157
-160
-158
-162
-163
-166
-157
-149
-146
-138
-132
-122
-109
-104
-97
-92
-80
-72
-69
-66
-67
-66
-67
-74
-82
-88
-87
-92
-99
-105
-112
-114
-118
-125
-133
-134
-129
-130
-130
-129
-127
-119
-113
-107
-102
-92
-77
-69
-61
-56
-51
-43
-44
-45
-52
-50
-51
-58
-65
-73
-80
-84
-94
-101
-111
-108
-109
-114
-115
-119
-118
-115
-116
-115
-112
-102
-93
-87
-80
-74
-66
-59
-58
-57
-55
-47
-47
-50
-54
-61
-64
-70
-78
-88
-92
-90
-94
-96
-98
-99
-95
-94
-93
-93
-88
-78
-72
-64
-55
-43
-24
-13
1
10
29
46
56
68
77
87
101
107
116
122
143
164
181
205
230
264
306
349
399
454
521
588
658
733
813
902
996
1091
1190
1294
1409
1522
1634
1747
1861
1982
2099
2217
2337
2469
2612
2756
2908
3066
3231
3407
3589
3777
3969
4174
4386
4595
4807
5018
5228
5440
5639
5836
6026
6223
6416
6598
6777
6945
7103
7250
7370
7475
7555
7630
7683
7713
7729
7725
7704
7665
7603
7523
7422
7306
7165
7000
6816
6612
6395
6160
5903
5631
5346
5054
4742
4419
4086
3743
3393
3025
2642
2249
1856
1468
1077
694
321
-40
-386
-722
-1045
-1356
-1648
-1925
-2196
-2452
-2699
-2933
-3148
-3358
-3552
-3731
-3882
-4013
-4127
-4218
-4291
-4340
-4364
-4378
-4369
-4345
-4293
-4231
-4161
-4078
-3988
-3888
-3782
-3676
-3566
-3454
-3333
-3216
-3103
-2992
-2885
-2776
-2671
-2572
-2477
-2381
-2280
-2186
-2096
-2009
-1925
-1837
-1757
-1680
-1607
-1530
-1451
-1380
-1311
-1245
-1181
-1117
-1060
-1007
-962
-912
-867
-833
-803
-780
-760
-739
-730
-722
-720
-711
-703
-700
-697
-696
-692
-682
-681
-674
-670
-651
-633
-619
-600
-581
-558
-534
-512
-489
-464
-430
-402
-378
-356
-337
-317
-301
-292
-286
-279
-268
-265
-265
-267
-270
-268
-271
-276
-282
-281
-275
-274
-272
-268
-263
-252
-245
-236
-229
-212
-193
-180
-164
-151
-136
-119
-110
-101
-97
-87
-79
-79
-80
-86
-90
-93
-107
-118
-132
-135
-141
-151
-157
-163
-164
-163
-165
-164
-161
-149
-140
-132
-123
-114
-101
-88
-79
-70
-59
-43
-36
-31
-29
-31
-29
-35
-45
-58
-67
-74
-86
-98
-109
-119
-124
-131
-136
-143
-138
-131
-129
-122
-117
-108
-94
-86
-75
-66
-49
-32
-20
-7
2
13
27
29
34
34
43
46
43
40
33
30
26
17
10
4
7
6
4
5
7
13
19
23
27
36
52
63
74
85
97
114
125
134
140
150
162
168
172
174
175
178
174
170
161
163
164
158
155
151
151
155
156
159
162
177
191
200
214
226
243
265
279
297
315
343
366
385
404
421
441
460
472
484
495
513
524
531
538
543
553
559
562
563
569
582
589
596
603
611
625
635
645
656
672
693
711
728
745
762
784
795
808
814
831
844
850
855
857
860
864
861
861
856
863
868
869
874
876
883
894
898
904
910
925
936
946
958
969
986
1003
1016
1030
1044
1066
1081
1093
1105
1114
1125
1133
1135
1135
1138
1146
1148
1150
1152
1153
1161
1166
1171
1176
1186
1202
1213
1225
1235
1247
1266
1278
1293
1306
1331
1356
1375
1395
1413
1431
1451
1464
1477
1484
1501
1512
1515
1518
1516
1517
1518
1512
1506
1500
1500
1498
1493
1490
1486
1486
1487
1484
1482
1483
1493
1499
1505
1512
1519
1531
1539
1545
1548
1556
1568
1571
1573
1572
1568
1567
1559
1546
1532
1520
1511
1496
1480
1462
1447
1438
1420
1407
1390
1386
1381
1371
1363
1354
1349
1348
1341
1338
1331
1337
1339
1334
1331
1325
1319
1314
1300
1285
1267
1254
1235
1211
1187
1160
1135
1109
1077
1045
1015
993
965
935
906
877
853
827
800
772
752
738
718
699
680
662
647
629
609
587
569
551
526
500
469
439
413
377
342
304
276
246
213
180
146
115
87
53
21
-13
-34
-58
-88
-113
-141
-165
-186
-212
-238
-265
-286
-312
-342
-373
-407
-438
-472
-513
-555
-598
-635
-678
-723
-768
-816
-858
-903
-950
-998
-1039
-1075
-1117
-1157
-1196
-1233
-1264
-1297
-1329
-1361
-1386
-1407
-1433
-1456
-1482
-1506
-1526
-1555
-1584
-1617
-1642
-1669
-1702
-1735
-1771
-1804
-1834
-1871
-1904
-1941
-1964
-1989
-2019
-2044
-2069
-2090
-2107
-2128
-2146
-2161
-2166
-2174
-2184
-2192
-2200
-2203
-2206
-2213
-2220
-2225
-2224
-2230
-2238
-2248
-2260
-2267
-2280
-2295
-2313
-2323
-2328
-2339
-2349
-2358
-2365
-2367
-2370
-2372
-2375
-2369
-2359
-2355
-2346
-2339
-2328
-2310
-2299
-2284
-2272
-2252
-2232
-2217
-2203
-2191
-2178
-2163
-2157
-2150
-2149
-2136
-2130
-2129
-2126
-2126
-2122
-2117
-2116
-2112
-2106
-2090
-2078
-2067
-2053
-2040
-2021
-2003
-1988
-1971
-1950
-1921
-1897
-1873
-1850
-1828
-1803
-1784
-1769
-1758
-1742
-1724
-1714
-1707
-1702
-1699
-1692
-1691
-1691
-1694
-1689
-1682
-1682
-1678
-1676
-1671
-1659
-1654
-1645
-1637
-1620
-1601
-1585
-1565
-1545
-1521
-1491
-1470
-1445
-1423
-1390
-1363
-1341
-1319
-1301
-1281
-1264
-1252
-1242
-1233
-1218
-1209
-1204
-1198
-1194
-1185
-1176
-1171
-1165
-1156
-1139
-1126
-1113
-1099
-1084
-1061
-1042
-1022
-1004
-980
-952
-930
-909
-891
-874
-855
-842
-831
-825
-813
-802
-801
-798
-799
-798
-792
-793
-792
-792
-783
-773
-768
-759
-752
-740
-722
-712
-697
-684
-658
-634
-613
-588
-565
-538
-511
-490
-468
-448
-421
-400
-385
-371
-360
-346
-337
-333
-330
-324
-313
-308
-304
-299
-294
-283
-278
-273
-269
-259
-243
-233
-222
-212
-200
-184
-173
-160
-152
-133
-116
-107
-97
-92
-86
-78
-78
-79
-84
-82
-84
-92
-97
-105
-110
-111
-121
-127
-134
-131
-129
-130
-129
-127
-120
-112
-108
-101
-94
-76
-64
-55
-45
-37
-25
-16
-13
-11
-8
-2
-3
-8
-16
-26
-32
-43
-56
-70
-80
-85
-93
-99
-105
-109
-106
-108
-108
-111
-101
-92
-88
-79
-72
-62
-49
-41
-32
-27
-13
-4
-2
1
-2
-3
-3
-12
-21
-31
-33
-39
-48
-57
-66
-71
-76
-84
-90
-95
-90
-90
-91
-90
-90
-83
-78
-74
-69
-58
-41
-30
-21
-14
-9
1
4
4
1
0
2
-3
-10
-19
-26
-29
-40
-48
-61
-61
-60
-65
-67
-70
-70
-66
-67
-64
-64
-51
-39
-33
-22
-15
-3
11
16
24
29
41
49
51
53
51
50
47
39
30
22
22
15
6
-1
-9
-12
-17
-24
-33
-35
-32
-34
-34
-34
-33
-25
-22
-18
-16
-8
1
4
6
5
3
5
-5
-14
-29
-34
-41
-55
-68
-82
-95
-103
-116
-125
-136
-134
-133
-137
-135
-136
-132
-124
-122
-116
-109
-94
-81
-70
-58
-49
-37
-26
-22
-19
-16
-8
-8
-13
-18
-27
-33
-43
-56
-71
-80
-84
-93
-102
-110
-117
-118
-122
-126
-131
-130
-126
-126
-123
-121
-116
-104
-101
-95
-94
-81
-71
-65
-59
-54
-45
-31
-22
-8
7
40
75
110
155
202
261
328
396
472
554
648
744
843
948
1056
1173
1295
1418
1545
1678
1822
1962
2100
2238
2375
2518
2659
2802
2950
3109
3280
3449
3622
3797
3973
4155
4335
4515
4694
4879
5065
5244
5421
5591
5759
5927
6080
6228
6364
6497
6617
6718
6805
6874
6928
6968
6981
6979
6955
6929
6883
6816
6738
6641
6529
6398
6244
6073
5883
5683
5461
5218
4960
4684
4397
4094
3774
3440
3098
2755
2399
2032
1654
1267
877
477
72
-333
-729
-1113
-1490
-1852
-2198
-2528
-2834
-3125
-3399
-3658
-3895
-4113
-4321
-4510
-4685
-4837
-4962
-5072
-5156
-5219
-5250
-5259
-5254
-5228
-5186
-5124
-5043
-4957
-4854
-4743
-4609
-4469
-4329
-4182
-4033
-3880
-3726
-3577
-3429
-3283
-3132
-2990
-2855
-2724
-2600
-2474
-2354
-2241
-2132
-2025
-1914
-1811
-1713
-1618
-1525
-1430
-1341
-1257
-1177
-1094
-1010
-934
-861
-791
-725
-659
-600
-547
-501
-452
-407
-374
-344
-323
-304
-285
-279
-275
-275
-268
-264
-265
-265
-268
-267
-260
-262
-258
-257
-241
-228
-219
-205
-191
-173
-153
-136
-117
-98
-71
-51
-35
-20
-9
3
11
12
9
8
11
6
-1
-9
-17
-20
-27
-34
-41
-40
-33
-31
-27
-23
-17
-6
2
11
18
35
53
64
79
90
103
118
124
130
132
140
146
145
144
138
134
134
124
118
109
112
112
109
109
109
113
119
122
128
135
151
164
175
188
200
218
234
246
258
271
287
296
302
305
306
310
307
302
294
290
290
286
281
277
275
279
279
282
283
297
311
320
332
343
355
373
383
396
407
428
448
462
478
489
502
518
522
528
530
540
544
544
543
541
542
543
540
537
534
541
544
543
544
542
546
547
544
540
541
548
550
550
550
551
556
556
553
547
544
543
536
526
513
500
490
473
457
437
430
423
410
402
393
388
387
383
382
379
387
395
398
407
413
424
440
448
460
470
490
504
515
524
530
539
545
544
542
539
543
539
533
526
518
515
510
504
498
498
505
506
508
511
515
526
534
543
552
567
588
606
623
640
657
678
691
704
711
729
743
749
755
757
759
763
761
761
758
766
773
774
780
784
793
807
814
825
837
859
878
896
915
932
954
976
993
1010
1028
1053
1071
1085
1098
1107
1118
1125
1127
1126
1127
1134
1132
1130
1127
1125
1128
1128
1128
1128
1133
1144
1150
1158
1165
1174
1189
1197
1209
1217
1239
1260
1276
1292
1306
1319
1335
1342
1350
1351
1362
1368
1365
1365
1360
1358
1359
1351
1345
1340
1344
1345
1343
1342
1340
1342
1345
1343
1343
1345
1356
1364
1370
1377
1383
1393
1399
1401
1400
1403
1407
1403
1395
1384
1370
1360
1342
1322
1300
1281
1266
1246
1227
1207
1190
1179
1159
1144
1125
1118
1112
1100
1091
1082
1075
1073
1064
1058
1048
1049
1046
1035
1026
1013
1001
988
968
947
924
906
884
857
831
803
778
752
721
693
667
649
627
604
582
559
541
522
500
479
464
455
440
426
411
395
381
363
341
317
295
274
246
217
184
151
123
84
49
9
-21
-50
-84
-116
-150
-182
-209
-242
-272
-305
-323
-345
-371
-393
-416
-436
-453
-475
-497
-520
-537
-559
-586
-613
-644
-673
-705
-744
-784
-824
-856
-895
-936
-977
-1019
-1054
-1091
-1129
-1168
-1199
-1224
-1256
-1285
-1314
-1342
-1364
-1387
-1410
-1433
-1448
-1460
-1477
-1493
-1513
-1531
-1545
-1569
-1592
-1620
-1640
-1662
-1690
-1717
-1748
-1775
-1800
-1832
-1860
-1891
-1907
-1926
-1949
-1968
-1987
-2002
-2015
-2030
-2043
-2054
-2055
-2059
-2064
-2066
-2070
-2068
-2067
-2072
-2076
-2081
-2079
-2084
-2093
-2102
-2114
-2121
-2133
-2146
-2159
-2165
-2166
-2172
-2175
-2177
-2176
-2170
-2165
-2160
-2155
-2142
-2126
-2115
-2101
-2089
-2073
-2050
-2035
-2017
-2002
-1978
-1956
-1940
-1924
-1912
-1900
-1885
-1882
-1877
-1878
-1867
-1861
-1860
-1856
-1854
-1848
-1841
-1837
-1830
-1821
-1803
-1787
-1773
-1757
-1742
-1721
-1701
-1684
-1666
-1645
-1615
-1591
-1568
-1546
-1525
-1500
-1481
-1465
-1452
-1434
-1413
-1401
-1389
-1379
-1370
-1357
-1348
-1339
-1333
-1318
-1302
-1292
-1278
-1266
-1250
-1228
-1214
-1196
-1181
-1157
-1132
-1111
-1087
-1065
-1039
-1008
-986
-961
-942
-911
-887
-869
-851
-838
-824
-811
-805
-800
-795
-782
-775
-771
-765
-761
-751
-743
-738
-734
-726
-711
-701
-691
-682
-672
-655
-643
-630
-618
-599
-575
-557
-541
-526
-512
-496
-486
-479
-478
-469
-461
-463
-464
-468
-470
-468
-473
-477
-482
-477
-471
-470
-465
-463
-457
-445
-441
-432
-425
-406
-389
-375
-359
-344
-326
-308
-296
-283
-272
-253
-241
-234
-229
-226
-220
-216
-218
-219
-217
-207
-204
-199
-194
-185
-168
-152
-132
-108
-71
-25
23
77
139
207
287
367
454
540
640
741
838
940
1040
1143
1251
1355
1464
1573
1692
1813
1929
2049
2168
2296
2433
2567
2712
2864
3035
3212
3392
3578
3767
3965
4167
4369
4576
4788
5012
5235
5457
5682
5904
6128
6343
6543
6730
6903
7063
7195
7306
7395
7462
7516
7547
7560
7553
7530
7490
7423
7332
7217
7080
6926
6744
6541
6314
6076
5817
5531
5231
4914
4585
4249
3893
3523
3133
2733
2306
1842
1348
818
265
-304
-896
-1491
-2086
-2663
-3226
-3771
-4287
-4774
-5224
-5639
-6022
-6364
-6665
-6915
-7126
-7296
-7421
-7504
-7540
-7538
-7503
-7434
-7332
-7199
-7051
-6887
-6709
-6519
-6316
-6112
-5905
-5696
-5481
-5261
-5047
-4834
-4623
-4413
-4202
-4002
-3804
-3614
-3416
-3223
-3043
-2865
-2695
-2528
-2364
-2211
-2064
-1927
-1785
-1653
-1533
-1416
-1310
-1208
-1110
-1028
-950
-880
-807
-745
-691
-641
-599
-557
-518
-488
-459
-432
-398
-372
-351
-329
-310
-287
-268
-254
-240
-222
-199
-182
-167
-151
-135
-114
-97
-81
-67
-49
-29
-14
-1
10
20
35
40
48
50
63
76
82
90
97
105
116
121
129
133
150
163
172
184
194
209
227
238
252
266
289
308
324
340
354
371
386
396
405
413
428
436
441
445
447
454
458
458
456
461
470
472
474
475
477
484
487
489
490
497
507
513
521
528
537
552
557
564
567
581
592
596
602
603
606
610
606
604
598
604
607
602
600
596
595
596
591
587
583
587
587
586
586
585
589
594
595
598
604
618
627
632
638
642
649
651
649
643
642
644
638
631
622
614
609
601
593
583
579
580
575
573
569
569
576
575
578
580
594
608
619
631
643
656
671
678
688
693
709
720
723
728
729
732
735
732
729
726
729
728
725
723
718
719
718
714
710
710
718
722
725
729
734
745
753
760
766
777
793
801
808
813
816
821
822
819
812
811
813
808
804
797
793
795
788
785
779
784
788
789
792
794
800
810
814
823
829
849
866
877
891
902
915
929
937
944
950
962
968
969
969
967
968
968
963
957
954
959
958
957
956
955
961
962
964
963
970
982
988
995
1002
1010
1022
1029
1034
1036
1044
1052
1052
1054
1050
1047
1047
1036
1026
1013
1007
1000
987
976
964
956
953
942
936
927
933
938
939
943
947
957
968
977
988
1000
1020
1034
1044
1054
1060
1068
1073
1071
1067
1063
1064
1058
1050
1041
1032
1026
1016
1006
994
990
991
987
982
979
976
978
976
976
974
982
993
997
1004
1009
1014
1023
1023
1023
1019
1022
1021
1012
1004
990
978
970
952
937
918
911
900
886
874
860
851
843
831
822
814
816
813
809
808
806
809
811
807
802
798
799
793
783
771
756
744
725
704
678
657
639
616
593
569
547
528
506
484
459
445
433
413
397
378
362
351
333
317
299
291
281
266
252
235
219
207
183
162
136
120
98
71
44
16
-8
-31
-58
-84
-108
-121
-139
-159
-177
-195
-208
-222
-238
-252
-262
-264
-271
-278
-285
-292
-294
-303
-314
-329
-339
-348
-364
-383
-406
-431
-454
-485
-516
-552
-577
-603
-636
-666
-698
-727
-752
-782
-811
-841
-861
-881
-907
-929
-952
-971
-985
-1007
-1025
-1046
-1056
-1070
-1089
-1106
-1128
-1146
-1166
-1192
-1217
-1244
-1263
-1287
-1313
-1338
-1363
-1383
-1403
-1425
-1446
-1462
-1469
-1481
-1493
-1504
-1515
-1519
-1526
-1534
-1541
-1541
-1535
-1533
-1531
-1530
-1529
-1524
-1527
-1529
-1538
-1536
-1536
-1545
-1552
-1564
-1574
-1581
-1594
-1605
-1620
-1624
-1629
-1639
-1644
-1652
-1654
-1650
-1654
-1653
-1653
-1642
-1633
-1625
-1615
-1606
-1591
-1576
-1567
-1557
-1549
-1533
-1523
-1518
-1514
-1513
-1509
-1509
-1514
-1522
-1525
-1523
-1528
-1533
-1538
-1542
-1541
-1543
-1546
-1549
-1546
-1538
-1533
-1527
-1520
-1511
-1495
-1486
-1473
-1464
-1442
-1421
-1408
-1392
-1380
-1367
-1353
-1345
-1337
-1332
-1318
-1308
-1306
-1300
-1299
-1294
-1287
-1288
-1287
-1286
-1276
-1269
-1263
-1255
-1248
-1235
-1221
-1210
-1197
-1183
-1158
-1137
-1117
-1096
-1075
-1049
-1028
-1010
-995
-975
-952
-937
-925
-916
-909
-899
-895
-893
-892
-887
-879
-875
-869
-864
-857
-844
-839
-831
-826
-810
-793
-782
-769
-756
-740
-720
-705
-688
-675
-651
-632
-621
-608
-600
-591
-583
-583
-584
-587
-584
-585
-589
-593
-599
-601
-604
-611
-617
-619
-613
-612
-612
-611
-608
-600
-593
-587
-580
-566
-546
-533
-518
-506
-494
-479
-470
-465
-462
-457
-450
-451
-453
-460
-466
-467
-478
-486
-498
-500
-501
-508
-511
-516
-517
-513
-516
-514
-516
-503
-494
-490
-482
-475
-465
-453
-446
-439
-434
-423
-417
-417
-417
-422
-423
-426
-435
-444
-452
-453
-460
-469
-477
-485
-487
-491
-497
-504
-503
-497
-497
-495
-493
-489
-480
-473
-467
-460
-447
-430
-421
-411
-405
-399
-388
-388
-387
-391
-388
-388
-395
-401
-410
-417
-420
-432
-440
-451
-449
-449
-454
-455
-457
-454
-449
-447
-443
-437
-422
-411
-402
-391
-382
-370
-360
-356
-353
-349
-339
-338
-340
-344
-351
-354
-362
-373
-386
-392
-393
-400
-405
-409
-411
-409
-409
-410
-411
-404
-394
-389
-380
-374
-365
-350
-343
-334
-328
-315
-304
-300
-295
-295
-295
-292
-301
-306
-317
-316
-319
-328
-335
-343
-347
-350
-356
-359
-362
-356
-353
-352
-349
-347
-339
-332
-329
-324
-315
-299
-289
-280
-271
-264
-254
-249
-247
-249
-247
-242
-245
-251
-259
-267
-272
-281
-290
-303
-306
-307
-313
-315
-318
-318
-312
-311
-308
-305
-292
-279
-268
-254
-242
-226
-205
-194
-181
-172
-153
-140
-134
-128
-127
-124
-123
-128
-131
-136
-132
-133
-137
-138
-140
-137
-134
-135
-135
-131
-119
-112
-105
-98
-90
-74
-63
-52
-41
-24
-3
12
25
36
45
57
62
65
62
66
69
63
61
54
49
49
42
37
31
34
37
36
38
38
43
53
54
60
65
83
98
110
123
134
149
162
170
177
183
194
199
198
197
192
190
187
178
169
164
166
163
159
156
153
158
159
159
159
165
175
180
185
190
194
202
205
208
205
212
216
211
208
200
193
188
175
164
148
141
133
120
111
98
90
86
74
65
55
56
54
49
47
44
46
48
47
48
51
63
71
75
80
83
90
93
91
86
83
85
78
69
59
48
41
29
15
0
-9
-13
-21
-28
-35
-39
-39
-43
-44
-48
-40
-30
-27
-20
-15
-7
5
11
17
20
31
39
39
40
36
34
34
24
16
7
6
2
-6
-13
-20
-23
-26
-34
-38
-41
-35
-32
-31
-28
-25
-17
-9
-4
1
11
25
33
38
42
43
47
44
38
30
24
20
11
0
-10
-20
-26
-37
-46
-59
-59
-60
-67
-71
-75
-77
-74
-76
-74
-75
-63
-53
-47
-37
-32
-23
-12
-11
-9
-10
-4
-2
-6
-11
-20
-26
-32
-43
-53
-62
-63
-70
-78
-85
-93
-96
-101
-108
-115
-115
-109
-109
-107
-105
-102
-94
-89
-85
-83
-77
-67
-63
-60
-61
-62
-59
-67
-73
-86
-87
-89
-97
-104
-112
-118
-120
-127
-130
-136
-130
-127
-128
-125
-125
-119
-110
-107
-102
-96
-81
-70
-63
-55
-50
-42
-35
-35
-36
-38
-33
-36
-43
-51
-60
-65
-73
-85
-97
-102
-102
-107
-112
-117
-122
-122
-123
-125
-128
-124
-116
-112
-105
-100
-92
-79
-77
-72
-73
-64
-58
-60
-61
-66
-70
-73
-84
-92
-105
-106
-109
-119
-124
-130
-131
-129
-131
-131
-129
-119
-111
-104
-95
-86
-70
-53
-41
-27
-13
9
25
37
49
58
70
77
79
78
80
86
85
83
79
75
74
69
64
58
57
60
58
59
58
60
70
71
76
79
92
106
115
126
134
143
155
158
163
162
172
176
172
170
163
159
155
146
138
130
129
125
120
117
112
112
113
110
109
112
124
131
138
147
156
170
181
189
194
206
220
225
229
230
228
227
222
214
202
195
191
180
171
161
153
153
144
140
133
137
142
142
145
147
151
160
162
167
169
185
196
200
206
209
214
218
215
211
204
204
197
185
173
159
149
139
123
108
96
93
85
76
69
61
59
54
48
41
41
47
48
50
52
54
59
61
60
57
59
63
58
54
44
36
31
18
7
-7
-12
-18
-28
-35
-43
-47
-45
-50
-51
-55
-44
-36
-32
-24
-16
-4
9
18
28
38
56
69
77
84
87
94
98
95
92
90
96
98
100
104
109
124
137
153
174
205
247
289
338
393
456
529
605
685
767
862
963
1060
1163
1265
1370
1480
1582
1685
1786
1896
2005
2111
2218
2325
2441
2569
2696
2836
2981
3147
3317
3487
3663
3839
4023
4208
4391
4576
4761
4952
5138
5318
5497
5672
5850
6025
6192
6353
6509
6661
6796
6918
7026
7121
7208
7277
7336
7384
7432
7474
7502
7520
7525
7515
7492
7443
7373
7279
7174
7050
6898
6726
6526
6302
6056
5778
5480
5159
4828
4478
4103
3706
3282
2841
2389
1918
1448
976
522
74
-366
-789
-1199
-1589
-1964
-2329
-2679
-3013
-3324
-3625
-3911
-4178
-4422
-4634
-4816
-4971
-5094
-5184
-5238
-5271
-5281
-5268
-5234
-5176
-5108
-5028
-4939
-4835
-4720
-4605
-4487
-4366
-4243
-4115
-3993
-3870
-3752
-3625
-3500
-3385
-3268
-3155
-3043
-2928
-2822
-2716
-2615
-2507
-2403
-2306
-2209
-2118
-2024
-1930
-1847
-1765
-1688
-1605
-1529
-1462
-1399
-1341
-1285
-1234
-1193
-1156
-1123
-1086
-1058
-1035
-1015
-999
-981
-965
-955
-945
-933
-915
-903
-891
-878
-865
-845
-830
-813
-795
-769
-738
-712
-686
-661
-637
-609
-588
-566
-550
-524
-500
-485
-470
-460
-449
-435
-428
-421
-418
-405
-395
-390
-382
-377
-368
-355
-351
-343
-336
-320
-306
-294
-279
-266
-247
-229
-215
-201
-188
-167
-152
-142
-133
-128
-121
-118
-121
-126
-127
-124
-127
-132
-138
-143
-143
-146
-150
-153
-150
-142
-138
-132
-127
-119
-105
-98
-87
-78
-57
-36
-23
-7
7
20
36
44
53
57
70
78
78
81
80
81
84
80
78
76
82
84
85
87
88
95
101
104
109
117
135
149
161
176
189
207
221
232
241
253
269
276
280
282
282
286
285
282
277
277
280
279
277
275
274
280
278
280
279
290
302
308
317
325
336
353
366
380
390
410
427
437
449
456
465
475
477
478
477
482
483
481
479
474
474
473
468
465
464
473
477
481
486
492
503
512
520
527
541
561
576
589
601
612
627
637
645
650
658
667
670
671
669
668
672
667
664
657
661
665
664
665
664
666
673
673
677
679
694
706
714
728
739
755
772
784
795
805
821
831
837
841
842
846
847
841
834
829
830
824
816
808
800
797
790
781
771
768
771
767
765
763
763
769
772
775
777
784
794
797
801
802
805
811
807
804
796
797
795
788
781
772
765
762
751
744
734
737
738
733
732
729
730
733
733
735
740
753
765
775
785
794
805
816
820
824
827
836
836
833
828
820
817
808
798
786
780
777
769
761
753
746
743
739
734
729
731
737
737
740
742
747
758
761
767
770
781
791
795
798
797
797
799
792
786
775
776
771
760
752
741
734
728
719
711
704
704
701
695
691
685
685
684
680
676
676
684
686
686
683
678
675
666
653
636
623
612
593
571
546
520
497
471
443
413
391
372
348
327
304
286
273
255
240
223
217
212
204
198
191
188
188
179
173
162
162
156
143
130
114
99
82
60
38
15
0
-21
-45
-68
-92
-110
-130
-152
-174
-192
-202
-217
-233
-246
-258
-263
-270
-277
-286
-287
-285
-290
-296
-304
-313
-320
-334
-349
-369
-382
-395
-415
-433
-456
-477
-494
-517
-539
-563
-578
-593
-612
-628
-646
-661
-669
-687
-700
-715
-718
-723
-733
-741
-750
-756
-763
-775
-788
-804
-812
-826
-846
-866
-890
-909
-932
-958
-986
-1010
-1028
-1050
-1072
-1093
-1114
-1128
-1147
-1165
-1184
-1195
-1200
-1209
-1216
-1222
-1226
-1225
-1228
-1230
-1237
-1234
-1230
-1235
-1237
-1243
-1249
-1251
-1262
-1273
-1287
-1292
-1297
-1308
-1316
-1327
-1334
-1335
-1346
-1351
-1358
-1353
-1351
-1351
-1348
-1345
-1336
-1326
-1319
-1308
-1296
-1273
-1256
-1241
-1226
-1213
-1197
-1185
-1178
-1173
-1166
-1155
-1152
-1151
-1152
-1153
-1150
-1152
-1156
-1161
-1160
-1154
-1153
-1152
-1152
-1151
-1144
-1142
-1138
-1137
-1124
-1110
-1102
-1090
-1080
-1068
-1053
-1045
-1036
-1030
-1015
-1003
-999
-992
-992
-990
-985
-991
-994
-998
-994
-993
-995
-995
-997
-995
-991
-993
-993
-991
-980
-973
-967
-959
-950
-935
-921
-910
-898
-883
-863
-850
-839
-830
-821
-809
-804
-802
-803
-800
-795
-796
-799
-804
-807
-805
-810
-812
-819
-812
-806
-807
-804
-802
-798
-788
-783
-776
-770
-753
-737
-725
-710
-700
-685
-668
-660
-651
-644
-630
-620
-615
-612
-612
-609
-608
-612
-616
-619
-614
-614
-616
-618
-620
-616
-615
-616
-617
-612
-600
-594
-586
-577
-568
-553
-542
-533
-526
-514
-499
-490
-484
-480
-477
-470
-473
-476
-483
-479
-476
-479
-481
-484
-484
-480
-481
-479
-480
-469
-459
-454
-445
-437
-425
-407
-396
-381
-365
-340
-317
-298
-278
-260
-240
-222
-212
-203
-195
-182
-176
-173
-171
-172
-169
-170
-173
-178
-177
-170
-169
-169
-168
-167
-161
-156
-152
-148
-137
-121
-108
-94
-82
-68
-49
-40
-30
-25
-11
0
4
9
10
12
15
12
11
6
12
16
15
17
17
22
30
32
37
42
56
67
76
87
98
113
127
137
148
160
179
192
201
209
215
224
227
225
222
224
231
234
239
246
257
278
300
327
359
404
459
518
586
659
739
831
919
1014
1111
1224
1340
1455
1576
1699
1829
1966
2100
2240
2378
2530
2680
2825
2976
3128
3290
3459
3629
3806
3990
4186
4383
4581
4783
4985
5193
5400
5601
5803
6009
6225
6436
6645
6853
7059
7265
7461
7646
7818
7985
8146
8289
8424
8548
8661
8765
8849
8914
8959
8986
8990
8960
8904
8816
8701
8564
8390
8191
7962
7717
7450
7157
6847
6512
6156
5773
5349
4889
4384
3847
3260
2629
1970
1285
588
-116
-821
-1512
-2182
-2816
-3420
-3987
-4510
-4990
-5416
-5793
-6126
-6408
-6638
-6811
-6941
-7027
-7070
-7075
-7040
-6979
-6893
-6785
-6651
-6495
-6333
-6158
-5976
-5787
-5590
-5394
-5196
-5001
-4800
-4599
-4407
-4217
-4036
-3858
-3681
-3519
-3360
-3210
-3058
-2912
-2776
-2644
-2521
-2401
-2284
-2181
-2080
-1987
-1886
-1794
-1712
-1630
-1554
-1477
-1404
-1336
-1271
-1210
-1143
-1085
-1032
-982
-937
-892
-853
-822
-794
-768
-738
-716
-699
-684
-671
-655
-645
-637
-632
-622
-607
-599
-590
-580
-569
-552
-537
-521
-506
-480
-450
-426
-399
-376
-351
-321
-301
-279
-264
-242
-225
-215
-207
-203
-199
-192
-197
-200
-207
-201
-201
-206
-208
-212
-211
-209
-209
-206
-201
-185
-172
-159
-142
-126
-103
-82
-66
-51
-34
-11
5
17
26
32
41
42
39
33
32
33
27
21
13
6
3
-3
-9
-17
-15
-11
-12
-9
-6
0
14
22
34
45
66
86
101
118
131
146
165
171
180
183
196
203
205
207
206
207
208
203
199
196
201
201
199
200
199
205
210
214
219
229
249
264
280
296
312
333
349
362
373
388
405
415
422
426
429
434
433
432
426
431
434
430
428
424
422
423
420
418
415
423
431
434
442
447
458
474
481
492
502
521
536
546
557
564
573
579
579
578
576
582
581
577
574
569
568
567
561
556
555
562
564
567
570
576
588
596
605
615
631
652
668
683
696
710
726
735
743
745
757
765
765
765
761
759
760
754
749
741
743
743
739
738
735
736
743
743
746
750
765
777
787
799
811
827
842
852
862
871
887
896
900
903
902
904
902
895
887
882
882
875
868
861
855
854
850
844
838
838
844
846
849
853
860
873
881
893
901
920
938
950
963
973
984
996
1001
1007
1007
1016
1021
1020
1021
1019
1021
1026
1023
1024
1024
1033
1038
1042
1047
1052
1062
1073
1080
1090
1102
1125
1143
1159
1176
1191
1210
1225
1236
1244
1254
1267
1271
1273
1271
1268
1269
1265
1259
1251
1248
1250
1247
1245
1242
1240
1245
1243
1244
1242
1252
1264
1270
1281
1290
1302
1317
1326
1335
1338
1351
1360
1360
1361
1357
1354
1351
1339
1328
1316
1311
1303
1291
1280
1268
1260
1254
1242
1232
1224
1224
1220
1214
1209
1204
1203
1200
1195
1189
1189
1193
1190
1185
1176
1166
1159
1145
1127
1105
1086
1068
1042
1015
984
955
930
896
866
831
808
785
755
729
701
677
657
632
612
590
582
572
558
549
537
529
520
505
489
472
461
445
424
402
377
353
328
297
266
235
212
183
151
120
88
60
29
-4
-38
-65
-87
-114
-141
-169
-196
-218
-243
-268
-296
-319
-341
-369
-398
-431
-465
-495
-536
-577
-624
-661
-700
-746
-791
-839
-885
-927
-975
-1019
-1068
-1102
-1140
-1182
-1220
-1260
-1294
-1327
-1363
-1395
-1426
-1447
-1470
-1496
-1520
-1546
-1568
-1591
-1619
-1648
-1676
-1697
-1725
-1755
-1787
-1821
-1848
-1880
-1914
-1949
-1976
-1997
-2024
-2048
-2071
-2093
-2108
-2126
-2142
-2159
-2168
-2172
-2181
-2185
-2190
-2192
-2187
-2190
-2191
-2197
-2193
-2190
-2194
-2198
-2204
-2210
-2213
-2225
-2235
-2249
-2250
-2254
-2264
-2269
-2276
-2279
-2280
-2284
-2286
-2286
-2277
-2271
-2266
-2258
-2250
-2235
-2220
-2208
-2195
-2178
-2154
-2135
-2118
-2103
-2088
-2070
-2058
-2049
-2044
-2035
-2023
-2019
-2017
-2016
-2014
-2008
-2007
-2006
-2007
-1999
-1990
-1985
-1978
-1973
-1965
-1950
-1942
-1931
-1922
-1902
-1882
-1866
-1847
-1832
-1814
-1794
-1784
-1772
-1765
-1746
-1734
-1730
-1726
-1726
-1725
-1724
-1729
-1732
-1735
-1731
-1730
-1732
-1730
-1729
-1721
-1713
-1709
-1704
-1694
-1675
-1662
-1647
-1631
-1614
-1591
-1570
-1549
-1531
-1507
-1479
-1459
-1440
-1423
-1407
-1390
-1378
-1367
-1361
-1346
-1331
-1323
-1312
-1304
-1294
-1278
-1270
-1259
-1251
-1234
-1216
-1202
-1186
-1170
-1150
-1125
-1109
-1087
-1068
-1035
-1006
-983
-957
-935
-911
-888
-871
-854
-840
-819
-805
-796
-788
-784
-777
-772
-773
-775
-774
-766
-764
-761
-758
-756
-747
-742
-739
-736
-725
-710
-699
-686
-674
-660
-643
-629
-615
-606
-588
-570
-561
-550
-544
-537
-528
-528
-527
-529
-522
-517
-517
-514
-515
-511
-503
-504
-501
-500
-488
-479
-473
-465
-458
-446
-433
-424
-414
-403
-383
-370
-360
-350
-342
-331
-324
-322
-322
-320
-314
-315
-318
-323
-328
-328
-334
-340
-346
-345
-339
-337
-335
-332
-328
-318
-313
-305
-300
-283
-265
-253
-238
-225
-210
-193
-182
-171
-164
-151
-140
-137
-134
-136
-136
-133
-141
-145
-152
-150
-150
-154
-156
-158
-157
-155
-157
-157
-156
-146
-139
-135
-127
-120
-107
-95
-86
-78
-67
-52
-43
-37
-33
-31
-26
-29
-36
-46
-51
-53
-61
-70
-80
-88
-92
-100
-106
-116
-113
-109
-112
-111
-111
-108
-102
-99
-94
-89
-74
-61
-53
-42
-37
-28
-17
-17
-16
-19
-15
-17
-23
-30
-39
-44
-49
-60
-70
-78
-76
-79
-83
-85
-87
-83
-80
-79
-78
-71
-58
-50
-42
-34
-25
-11
-3
4
8
16
26
29
29
26
22
20
9
-1
-17
-20
-25
-36
-45
-55
-61
-63
-70
-75
-81
-76
-71
-71
-66
-64
-57
-45
-40
-32
-24
-9
2
9
16
19
24
27
23
19
13
13
6
-5
-15
-27
-35
-45
-57
-69
-74
-73
-77
-80
-83
-84
-80
-77
-76
-74
-67
-55
-48
-41
-36
-32
-24
-27
-29
-37
-37
-40
-52
-63
-78
-92
-103
-120
-134
-151
-156
-162
-173
-178
-186
-188
-186
-188
-188
-188
-180
-174
-171
-165
-160
-150
-140
-135
-130
-125
-113
-108
-107
-107
-111
-113
-119
-130
-144
-152
-155
-165
-174
-183
-192
-194
-197
-201
-204
-201
-193
-189
-182
-176
-166
-150
-142
-130
-122
-102
-83
-71
-57
-48
-37
-26
-24
-21
-25
-18
-15
-21
-25
-31
-35
-36
-43
-48
-53
-49
-48
-49
-49
-49
-45
-41
-40
-37
-33
-19
-9
-1
8
16
30
38
42
43
50
60
61
61
57
51
47
38
28
16
9
5
-4
-11
-19
-23
-20
-24
-25
-27
-17
-7
-1
7
14
25
39
47
58
64
82
94
98
104
104
106
108
103
98
90
88
81
71
62
51
44
38
28
21
19
27
30
33
36
39
47
51
53
55
64
77
84
91
97
102
108
109
107
101
99
97
85
74
58
44
35
17
1
-17
-24
-31
-41
-48
-55
-59
-58
-64
-66
-70
-59
-52
-49
-42
-36
-26
-15
-9
-4
-1
9
12
10
7
0
-5
-14
-29
-46
-60
-69
-83
-99
-115
-129
-137
-148
-159
-170
-173
-170
-172
-172
-171
-169
-162
-156
-151
-147
-136
-123
-118
-113
-111
-109
-104
-109
-114
-124
-127
-133
-144
-154
-167
-175
-179
-191
-198
-208
-203
-202
-205
-204
-204
-200
-194
-191
-187
-182
-168
-158
-151
-142
-136
-126
-119
-118
-118
-116
-109
-109
-113
-119
-126
-130
-139
-150
-162
-167
-168
-174
-179
-183
-187
-185
-186
-186
-189
-181
-171
-168
-160
-154
-145
-131
-125
-116
-110
-95
-83
-77
-71
-71
-70
-68
-78
-87
-100
-103
-110
-121
-130
-140
-145
-150
-159
-165
-170
-164
-163
-163
-162
-162
-156
-151
-149
-146
-139
-124
-116
-109
-103
-98
-88
-86
-85
-89
-88
-85
-90
-96
-105
-114
-120
-131
-142
-157
-161
-165
-175
-181
-190
-195
-196
-202
-206
-212
-209
-206
-206
-202
-201
-195
-185
-185
-182
-183
-175
-171
-172
-174
-179
-181
-185
-195
-206
-217
-220
-227
-237
-246
-255
-258
-261
-267
-271
-270
-260
-254
-246
-237
-226
-207
-192
-176
-161
-139
-114
-94
-76
-60
-45
-27
-16
-5
0
16
29
35
42
46
53
63
67
73
78
92
105
114
125
133
145
161
167
177
186
207
224
238
254
268
285
300
308
316
323
336
342
343
344
341
341
338
332
325
322
324
321
317
314
310
313
310
308
305
307
314
317
321
326
334
346
353
363
367
382
395
400
407
410
413
418
416
413
405
405
402
391
383
371
363
358
345
336
326
324
319
313
308
303
302
302
298
296
296
305
311
313
316
317
322
323
319
313
311
312
307
301
295
291
294
294
297
303
317
340
364
394
429
472
527
581
645
709
791
877
962
1056
1153
1256
1364
1468
1574
1677
1791
1904
2012
2124
2232
2347
2469
2589
2719
2857
3011
3170
3331
3497
3665
3840
4019
4196
4377
4560
4751
4937
5119
5299
5476
5655
5830
5999
6163
6324
6481
6621
6749
6863
6964
7055
7128
7185
7230
7269
7300
7314
7317
7306
7281
7245
7180
7098
6990
6875
6738
6576
6394
6189
5961
5711
5430
5130
4806
4478
4130
3761
3375
2966
2539
2098
1642
1183
724
278
-163
-595
-1011
-1415
-1799
-2166
-2523
-2865
-3190
-3493
-3787
-4067
-4328
-4568
-4779
-4965
-5123
-5252
-5346
-5408
-5451
-5468
-5462
-5434
-5381
-5314
-5234
-5143
-5037
-4920
-4802
-4679
-4554
-4424
-4288
-4160
-4030
-3905
-3770
-3638
-3514
-3390
-3272
-3155
-3036
-2926
-2815
-2711
-2596
-2488
-2388
-2286
-2191
-2094
-1999
-1911
-1825
-1741
-1653
-1571
-1495
-1424
-1359
-1295
-1236
-1187
-1142
-1101
-1058
-1027
-1002
-981
-966
-949
-940
-935
-933
-927
-917
-913
-910
-908
-905
-898
-893
-887
-882
-869
-852
-838
-821
-805
-786
-760
-744
-727
-714
-693
-673
-661
-648
-640
-631
-621
-620
-617
-619
-608
-601
-601
-598
-597
-592
-586
-584
-581
-578
-566
-557
-550
-540
-530
-514
-496
-480
-462
-439
-409
-385
-364
-343
-323
-299
-280
-265
-253
-236
-216
-205
-194
-185
-178
-168
-162
-157
-155
-145
-132
-125
-116
-109
-97
-79
-68
-54
-42
-20
3
22
44
62
83
105
117
131
139
158
170
174
178
179
182
184
181
178
176
181
183
183
185
186
194
201
205
210
220
238
252
265
279
294
316
334
350
365
386
410
427
443
456
467
479
485
488
486
489
494
490
489
484
482
486
483
483
480
486
493
496
501
505
513
526
530
540
547
568
585
596
609
618
630
641
647
652
655
665
668
668
666
663
663
660
653
647
644
650
651
652
654
656
664
669
674
677
688
703
714
726
737
749
765
775
783
787
798
808
809
811
807
804
804
795
788
777
774
769
759
752
744
740
741
734
731
726
734
739
741
746
750
759
769
775
783
790
805
815
821
827
830
836
839
836
832
830
833
830
826
820
815
814
810
805
800
802
809
811
814
819
825
835
843
852
858
876
894
905
918
927
937
948
951
954
952
956
958
951
945
932
922
915
897
882
865
859
850
839
831
822
818
815
810
807
806
815
819
821
826
830
840
847
849
851
856
866
867
866
862
856
854
844
831
815
805
798
785
773
759
746
739
726
715
700
698
697
690
687
683
682
686
685
687
686
695
702
702
704
699
697
697
685
674
658
650
636
617
598
578
561
544
522
503
484
476
463
448
436
424
418
410
399
389
383
384
378
373
365
357
354
343
331
316
303
294
278
259
238
215
196
168
142
110
90
70
42
19
-6
-28
-45
-66
-84
-105
-114
-124
-139
-150
-163
-171
-175
-188
-200
-213
-220
-230
-246
-262
-281
-299
-318
-344
-369
-395
-414
-438
-465
-489
-515
-534
-554
-575
-596
-611
-619
-632
-643
-654
-663
-665
-670
-674
-678
-677
-671
-670
-671
-675
-679
-679
-689
-699
-716
-723
-733
-751
-767
-787
-805
-820
-840
-858
-878
-886
-894
-907
-915
-924
-927
-927
-933
-935
-938
-932
-929
-929
-927
-927
-924
-921
-925
-929
-934
-933
-940
-951
-964
-980
-993
-1011
-1033
-1057
-1074
-1086
-1102
-1118
-1133
-1146
-1153
-1163
-1173
-1182
-1185
-1183
-1185
-1185
-1186
-1184
-1175
-1174
-1171
-1171
-1160
-1151
-1149
-1147
-1148
-1147
-1145
-1151
-1156
-1165
-1163
-1165
-1174
-1180
-1189
-1194
-1197
-1205
-1210
-1214
-1208
-1205
-1204
-1201
-1200
-1193
-1185
-1182
-1178
-1170
-1153
-1140
-1129
-1116
-1105
-1089
-1077
-1069
-1063
-1053
-1039
-1034
-1031
-1030
-1031
-1028
-1029
-1033
-1039
-1041
-1040
-1044
-1046
-1050
-1052
-1047
-1051
-1052
-1055
-1045
-1036
-1030
-1022
-1015
-1004
-989
-980
-968
-961
-941
-926
-919
-909
-904
-897
-890
-890
-890
-893
-888
-889
-894
-898
-904
-906
-909
-917
-923
-926
-921
-921
-922
-922
-922
-916
-913
-910
-907
-896
-879
-867
-856
-847
-838
-826
-818
-812
-809
-802
-794
-794
-793
-797
-798
-794
-799
-802
-807
-802
-796
-794
-788
-783
-775
-762
-757
-746
-737
-714
-694
-679
-660
-642
-621
-599
-583
-567
-553
-532
-518
-508
-500
-495
-488
-483
-486
-490
-491
-487
-489
-493
-496
-499
-497
-498
-500
-503
-498
-487
-481
-475
-469
-461
-448
-437
-428
-420
-405
-389
-381
-372
-368
-362
-353
-355
-357
-364
-364
-367
-375
-382
-391
-398
-400
-411
-417
-427
-423
-424
-429
-432
-437
-437
-436
-438
-438
-437
-426
-419
-414
-408
-404
-397
-392
-393
-394
-395
-390
-393
-400
-409
-421
-428
-440
-454
-471
-480
-486
-496
-506
-514
-520
-522
-525
-527
-531
-525
-517
-514
-507
-502
-494
-480
-474
-464
-458
-444
-431
-424
-416
-413
-407
-397
-399
-399
-404
-396
-394
-396
-396
-399
-397
-394
-393
-389
-384
-367
-351
-334
-310
-281
-241
-194
-144
-84
-13
74
163
258
358
463
577
689
803
917
1041
1172
1301
1434
1572
1718
1874
2030
2192
2355
2533
2716
2897
3089
3285
3491
3708
3927
4152
4379
4617
4856
5093
5333
5571
5813
6056
6288
6523
6751
6986
7210
7423
7628
7820
8004
8174
8324
8462
8585
8703
8804
8891
8966
9024
9071
9097
9099
9077
9034
8973
8879
8757
8606
8430
8233
8005
7751
7471
7175
6861
6519
6154
5760
5334
4875
4371
3826
3233
2610
1955
1270
572
-135
-838
-1528
-2205
-2853
-3468
-4032
-4553
-5030
-5452
-5824
-6140
-6401
-6620
-6785
-6905
-6967
-6990
-6978
-6931
-6856
-6752
-6626
-6488
-6333
-6167
-5984
-5800
-5615
-5427
-5239
-5048
-4858
-4673
-4488
-4302
-4113
-3932
-3755
-3583
-3414
-3245
-3085
-2931
-2782
-2634
-2488
-2352
-2222
-2098
-1981
-1865
-1764
-1668
-1583
-1494
-1412
-1344
-1280
-1224
-1173
-1124
-1086
-1051
-1023
-988
-958
-936
-913
-895
-874
-850
-834
-817
-801
-776
-754
-735
-714
-695
-672
-648
-628
-606
-583
-552
-526
-502
-478
-457
-432
-410
-393
-377
-359
-337
-323
-312
-302
-293
-281
-274
-268
-265
-256
-243
-235
-228
-221
-212
-197
-190
-179
-172
-153
-132
-118
-100
-84
-66
-45
-30
-14
-3
17
33
42
52
57
64
73
72
73
73
80
83
84
85
84
88
92
91
93
96
109
116
123
130
139
153
167
178
189
205
225
238
249
258
266
277
282
284
283
285
289
288
286
282
279
280
273
269
261
265
268
266
265
264
265
270
270
273
274
288
301
309
321
329
341
354
361
368
374
386
393
395
396
393
393
392
384
377
369
369
364
356
350
343
342
338
332
325
326
332
334
338
342
348
359
367
374
380
390
403
410
417
419
420
426
421
417
409
412
413
407
403
397
395
395
388
385
378
384
388
386
389
390
395
404
410
418
428
446
461
473
486
496
509
520
524
527
530
538
540
537
535
531
531
528
522
516
518
525
527
531
535
540
551
560
569
579
594
614
630
648
664
682
706
720
736
746
765
781
789
796
799
803
808
805
804
799
806
809
807
808
807
812
819
821
825
830
844
856
866
878
889
906
924
937
952
968
991
1008
1021
1033
1042
1054
1061
1062
1061
1063
1069
1067
1064
1060
1056
1055
1052
1048
1044
1046
1052
1053
1057
1058
1063
1074
1078
1085
1090
1106
1123
1136
1151
1163
1177
1194
1202
1211
1216
1231
1240
1241
1243
1240
1239
1237
1230
1223
1216
1216
1211
1204
1197
1189
1186
1182
1174
1166
1162
1165
1163
1161
1160
1158
1162
1161
1157
1152
1153
1156
1151
1144
1135
1122
1112
1095
1077
1055
1040
1026
1006
989
969
952
941
924
908
892
885
879
870
864
857
855
859
854
855
853
865
871
871
873
871
870
867
859
848
836
831
818
800
783
763
746
728
704
681
661
648
630
611
593
575
564
549
534
519
511
508
499
491
482
472
466
453
440
422
411
399
377
356
329
302
278
246
215
181
156
130
99
72
44
19
0
-28
-51
-77
-90
-106
-127
-145
-164
-179
-194
-213
-232
-253
-267
-287
-312
-338
-368
-395
-425
-463
-503
-541
-575
-614
-656
-699
-742
-781
-824
-868
-913
-951
-986
-1025
-1062
-1099
-1135
-1165
-1199
-1230
-1263
-1285
-1305
-1332
-1356
-1385
-1411
-1435
-1467
-1498
-1533
-1562
-1592
-1629
-1664
-1704
-1739
-1770
-1809
-1844
-1881
-1905
-1931
-1958
-1982
-2005
-2023
-2038
-2056
-2072
-2086
-2089
-2096
-2105
-2111
-2119
-2120
-2123
-2131
-2140
-2145
-2145
-2152
-2161
-2172
-2185
-2194
-2209
-2226
-2244
-2255
-2262
-2274
-2284
-2293
-2300
-2301
-2305
-2307
-2311
-2302
-2293
-2289
-2281
-2275
-2265
-2250
-2238
-2224
-2212
-2190
-2170
-2156
-2140
-2129
-2116
-2101
-2097
-2092
-2090
-2081
-2075
-2074
-2072
-2072
-2067
-2062
-2061
-2056
-2049
-2031
-2017
-2004
-1988
-1970
-1947
-1923
-1900
-1877
-1849
-1814
-1784
-1753
-1724
-1695
-1663
-1637
-1613
-1592
-1569
-1544
-1525
-1509
-1495
-1481
-1464
-1455
-1444
-1437
-1419
-1401
-1389
-1373
-1358
-1339
-1316
-1298
-1277
-1257
-1227
-1197
-1172
-1143
-1115
-1083
-1046
-1019
-989
-961
-926
-894
-867
-842
-820
-797
-777
-765
-754
-745
-729
-719
-713
-706
-700
-689
-679
-671
-664
-651
-632
-619
-605
-591
-577
-558
-543
-527
-513
-494
-470
-452
-436
-423
-411
-396
-391
-386
-388
-380
-375
-379
-382
-388
-392
-394
-401
-405
-411
-405
-399
-398
-392
-389
-380
-368
-362
-353
-343
-325
-308
-293
-278
-263
-246
-230
-221
-214
-208
-196
-192
-192
-194
-199
-201
-209
-220
-233
-241
-244
-253
-261
-270
-276
-278
-282
-287
-292
-291
-285
-283
-279
-276
-270
-258
-253
-246
-242
-227
-215
-211
-207
-207
-205
-203
-209
-215
-226
-227
-233
-246
-256
-268
-276
-282
-293
-301
-308
-306
-306
-307
-307
-308
-304
-299
-299
-296
-292
-279
-272
-267
-261
-258
-252
-250
-252
-258
-259
-256
-263
-270
-280
-292
-299
-310
-322
-335
-343
-347
-355
-362
-370
-374
-372
-379
-381
-386
-378
-370
-366
-359
-353
-344
-331
-326
-318
-316
-302
-294
-294
-293
-296
-298
-300
-309
-318
-328
-331
-339
-349
-358
-369
-375
-381
-391
-400
-406
-402
-404
-406
-407
-408
-403
-401
-400
-401
-394
-383
-378
-374
-372
-371
-368
-370
-376
-386
-392
-397
-410
-422
-438
-451
-457
-473
-486
-502
-507
-512
-521
-528
-536
-541
-541
-548
-550
-554
-544
-537
-533
-526
-520
-510
-501
-496
-491
-487
-476
-470
-468
-467
-469
-467
-468
-474
-480
-483
-479
-480
-483
-484
-486
-482
-482
-484
-486
-482
-472
-468
-462
-457
-450
-438
-429
-420
-414
-401
-388
-383
-378
-377
-376
-371
-377
-382
-392
-395
-399
-408
-415
-425
-431
-432
-441
-445
-451
-443
-438
-437
-432
-427
-418
-406
-397
-384
-371
-347
-326
-307
-286
-268
-246
-227
-213
-201
-187
-168
-158
-150
-145
-142
-135
-135
-136
-140
-137
-131
-130
-129
-128
-127
-121
-119
-117
-116
-106
-92
-85
-73
-64
-52
-33
-22
-10
-2
14
29
37
45
49
55
62
59
57
51
56
56
51
48
43
42
41
37
34
32
39
42
44
47
50
58
66
71
77
87
104
116
126
135
142
153
158
160
159
162
166
162
156
150
142
137
127
117
103
99
97
88
83
76
73
75
71
70
68
76
85
91
100
107
117
130
133
138
139
149
154
154
153
149
146
142
132
122
112
110
102
93
85
76
73
68
60
53
52
59
61
64
68
73
86
95
104
111
124
140
150
158
164
168
175
173
171
162
162
161
151
144
134
125
122
112
106
98
99
101
98
99
97
100
108
107
111
114
127
138
145
153
157
164
170
170
169
167
171
167
159
149
136
127
116
102
87
76
71
61
52
43
35
34
28
23
16
17
23
25
29
32
37
46
50
54
51
59
64
60
57
49
41
35
20
6
-11
-19
-28
-42
-53
-67
-76
-81
-95
-105
-115
-116
-119
-123
-126
-128
-127
-124
-125
-124
-122
-112
-109
-108
-108
-111
-112
-116
-127
-140
-151
-158
-173
-190
-208
-226
-239
-256
-274
-291
-301
-306
-315
-322
-329
-332
-329
-331
-329
-331
-320
-308
-302
-293
-286
-276
-264
-258
-250
-248
-236
-229
-230
-230
-235
-238
-238
-247
-254
-261
-260
-262
-266
-267
-270
-267
-263
-263
-260
-256
-242
-233
-224
-214
-204
-188
-174
-164
-154
-139
-121
-111
-103
-97
-92
-85
-84
-87
-93
-97
-98
-103
-109
-118
-124
-125
-134
-139
-148
-144
-140
-140
-138
-137
-132
-124
-120
-112
-106
-88
-72
-61
-46
-36
-23
-8
-1
7
12
22
27
29
29
26
26
25
18
12
8
12
11
10
10
10
17
22
25
29
40
56
66
78
90
102
119
133
144
152
163
177
185
192
195
198
205
201
199
191
194
195
189
184
179
176
176
170
167
161
168
173
173
177
179
187
198
204
213
223
240
252
261
270
276
285
292
293
294
298
310
316
322
330
340
359
378
399
423
460
508
555
608
668
734
810
888
970
1056
1154
1261
1368
1480
1592
1708
1830
1945
2064
2180
2308
2436
2560
2690
2825
2970
3127
3285
3455
3626
3813
3999
4182
4372
4562
4757
4954
5145
5336
5525
5717
5903
6081
6258
6428
6597
6758
6902
7033
7152
7263
7350
7417
7467
7500
7522
7525
7512
7483
7447
7401
7334
7251
7149
7026
6885
6722
6538
6333
6116
5883
5622
5342
5038
4718
4386
4030
3665
3284
2898
2496
2073
1640
1197
754
317
-122
-546
-959
-1343
-1715
-2074
-2413
-2737
-3043
-3333
-3611
-3874
-4121
-4345
-4554
-4744
-4908
-5046
-5154
-5236
-5298
-5336
-5350
-5336
-5309
-5264
-5202
-5126
-5032
-4932
-4825
-4714
-4591
-4460
-4333
-4206
-4078
-3951
-3822
-3698
-3576
-3458
-3335
-3213
-3100
-2987
-2878
-2770
-2659
-2559
-2459
-2366
-2266
-2170
-2080
-1992
-1908
-1823
-1736
-1660
-1582
-1510
-1429
-1355
-1291
-1229
-1173
-1118
-1068
-1028
-992
-961
-926
-900
-880
-862
-848
-833
-820
-813
-806
-797
-780
-770
-761
-751
-740
-723
-708
-693
-677
-653
-622
-595
-567
-539
-510
-479
-453
-428
-408
-383
-359
-345
-331
-323
-316
-306
-305
-303
-304
-298
-293
-293
-290
-290
-285
-276
-275
-269
-264
-246
-231
-219
-203
-188
-168
-147
-129
-110
-93
-68
-49
-34
-20
-9
4
14
18
18
20
27
26
23
19
14
15
12
8
3
5
12
15
18
22
28
39
47
57
65
85
106
121
138
150
164
181
189
196
198
206
211
208
206
200
196
197
188
181
173
176
177
175
176
177
182
188
191
196
202
218
231
243
256
269
286
300
309
317
326
341
348
352
353
351
353
348
342
334
332
333
330
327
324
323
327
326
328
326
336
348
354
363
371
382
399
411
425
437
456
473
484
496
503
512
523
524
526
524
530
532
531
530
527
528
530
527
526
527
537
542
546
552
556
566
573
578
584
593
609
620
631
641
650
664
671
675
676
681
688
689
687
681
675
673
664
657
645
645
645
639
637
632
630
631
627
626
622
630
636
639
646
651
661
676
681
690
695
709
718
723
727
728
731
733
727
720
713
713
707
698
691
682
678
671
662
652
647
649
646
643
641
641
647
650
654
657
666
680
690
698
705
711
721
723
725
720
727
731
727
724
719
717
716
709
704
696
700
702
699
700
699
703
712
714
719
725
740
753
764
777
788
803
818
826
835
843
858
865
868
870
868
870
868
862
855
852
855
850
847
843
840
842
839
835
831
832
837
837
838
838
840
849
851
856
856
868
877
879
882
881
881
882
875
869
857
856
850
836
824
809
797
788
773
760
747
741
733
721
711
700
693
686
675
667
661
664
661
656
650
643
639
632
620
605
594
587
570
552
530
507
487
463
436
409
386
368
346
325
303
283
269
247
229
207
198
188
174
164
154
147
143
131
122
107
103
94
77
63
45
28
11
-14
-40
-66
-85
-108
-134
-158
-184
-204
-224
-247
-269
-288
-299
-313
-329
-344
-358
-366
-376
-387
-398
-402
-400
-407
-415
-425
-436
-445
-457
-472
-490
-504
-516
-536
-557
-580
-603
-620
-646
-669
-696
-712
-728
-749
-767
-787
-802
-813
-829
-842
-859
-861
-866
-876
-881
-888
-891
-893
-900
-907
-915
-916
-923
-933
-945
-961
-974
-989
-1009
-1030
-1050
-1063
-1081
-1101
-1120
-1138
-1150
-1166
-1182
-1198
-1207
-1209
-1217
-1223
-1228
-1231
-1228
-1228
-1228
-1230
-1226
-1221
-1223
-1224
-1229
-1234
-1235
-1246
-1255
-1270
-1276
-1284
-1296
-1307
-1321
-1331
-1337
-1351
-1360
-1372
-1370
-1370
-1374
-1374
-1374
-1371
-1365
-1361
-1355
-1348
-1331
-1317
-1306
-1294
-1284
-1271
-1258
-1252
-1247
-1240
-1228
-1223
-1223
-1223
-1226
-1225
-1229
-1235
-1244
-1246
-1243
-1245
-1247
-1249
-1250
-1247
-1244
-1241
-1239
-1228
-1213
-1204
-1190
-1177
-1162
-1140
-1126
-1111
-1100
-1081
-1063
-1053
-1042
-1036
-1029
-1019
-1021
-1020
-1024
-1017
-1014
-1018
-1019
-1022
-1020
-1016
-1015
-1013
-1011
-999
-990
-983
-975
-967
-954
-940
-928
-916
-899
-876
-860
-847
-835
-825
-811
-804
-799
-797
-790
-780
-779
-778
-778
-779
-776
-778
-779
-784
-779
-774
-775
-773
-773
-771
-764
-763
-760
-757
-745
-734
-726
-716
-709
-699
-685
-681
-674
-671
-658
-650
-649
-647
-650
-651
-653
-660
-665
-671
-669
-671
-675
-678
-682
-680
-680
-682
-684
-681
-670
-664
-657
-648
-638
-622
-611
-599
-590
-576
-558
-547
-538
-530
-524
-515
-513
-513
-518
-514
-512
-518
-522
-528
-532
-531
-536
-538
-542
-537
-531
-530
-524
-520
-512
-498
-493
-482
-474
-453
-435
-421
-406
-394
-379
-365
-357
-350
-345
-333
-328
-328
-327
-329
-327
-327
-332
-337
-337
-330
-328
-326
-323
-320
-310
-305
-299
-294
-283
-266
-253
-240
-226
-211
-191
-178
-165
-158
-141
-126
-120
-113
-109
-105
-99
-102
-104
-110
-107
-105
-108
-108
-111
-109
-103
-106
-104
-103
-93
-85
-80
-73
-66
-55
-42
-33
-23
-12
8
21
30
39
45
54
58
57
54
53
56
51
45
38
31
28
20
12
3
0
1
-2
-5
-8
-9
-4
-5
-2
-3
8
19
24
33
39
45
55
57
60
59
66
69
65
62
54
47
44
31
20
9
6
2
-5
-9
-16
-18
-19
-26
-30
-32
-25
-22
-20
-16
-12
-2
7
12
16
24
37
42
45
46
45
47
43
36
26
20
16
8
-1
-12
-21
-23
-32
-37
-45
-40
-34
-33
-30
-27
-22
-12
-7
2
9
27
42
51
62
67
74
82
81
79
73
74
69
58
46
32
20
7
-12
-29
-45
-53
-65
-79
-91
-102
-107
-114
-122
-129
-129
-122
-120
-116
-112
-106
-95
-88
-83
-79
-71
-60
-56
-53
-54
-55
-52
-60
-66
-77
-77
-79
-87
-92
-97
-100
-99
-103
-103
-107
-97
-89
-86
-79
-73
-63
-49
-41
-31
-21
-4
8
16
24
28
34
38
35
30
25
25
19
9
0
-10
-14
-22
-32
-43
-47
-46
-50
-53
-56
-57
-53
-52
-50
-49
-40
-27
-19
-10
-3
5
17
19
20
16
21
22
17
11
1
-9
-15
-29
-40
-55
-56
-61
-71
-77
-84
-87
-87
-92
-94
-95
-88
-83
-79
-73
-67
-57
-46
-41
-37
-31
-20
-15
-13
-13
-16
-15
-20
-29
-40
-46
-47
-56
-63
-71
-77
-78
-81
-83
-87
-83
-77
-74
-70
-67
-60
-47
-42
-32
-26
-9
6
15
25
30
37
46
46
47
43
50
51
45
41
33
28
24
15
8
2
4
4
2
1
0
4
8
9
10
15
30
40
49
59
68
81
90
96
99
108
120
123
124
122
118
116
110
102
91
87
85
76
70
63
58
60
54
51
47
52
58
61
65
68
76
88
93
103
108
125
135
139
144
145
148
149
144
138
131
131
125
116
108
97
92
86
75
66
60
63
61
59
58
58
63
64
65
66
74
87
95
103
109
114
121
123
123
118
119
119
110
101
87
74
66
50
36
20
13
6
-5
-12
-22
-28
-28
-36
-40
-46
-38
-33
-30
-23
-17
-6
5
11
16
20
31
35
34
31
25
21
14
1
-13
-24
-28
-38
-50
-62
-73
-78
-87
-97
-107
-110
-108
-110
-111
-110
-109
-101
-97
-92
-89
-75
-62
-57
-50
-46
-42
-35
-37
-39
-45
-45
-49
-59
-68
-82
-93
-100
-117
-130
-145
-147
-153
-162
-168
-175
-177
-179
-184
-188
-191
-184
-181
-179
-176
-175
-170
-168
-172
-177
-181
-180
-187
-198
-211
-226
-238
-256
-276
-297
-312
-323
-338
-352
-365
-376
-381
-389
-394
-402
-397
-391
-390
-385
-381
-374
-362
-355
-346
-341
-327
-314
-308
-300
-297
-292
-284
-288
-292
-300
-298
-301
-309
-316
-325
-330
-335
-342
-348
-351
-344
-341
-339
-335
-331
-321
-312
-305
-297
-284
-265
-251
-238
-227
-216
-202
-194
-189
-187
-181
-173
-172
-173
-177
-180
-180
-187
-193
-204
-202
-200
-204
-203
-204
-202
-196
-194
-189
-185
-170
-156
-144
-128
-115
-96
-72
-58
-41
-27
-5
12
23
33
40
47
52
50
47
44
47
45
39
34
27
25
21
15
9
7
12
12
12
12
13
21
25
31
36
46
61
70
78
85
90
99
99
99
93
97
99
93
90
84
79
79
73
69
63
69
73
72
76
77
82
92
94
100
106
122
137
149
162
173
187
200
206
211
216
226
229
228
224
218
215
208
197
186
180
179
172
166
161
156
158
156
155
154
159
169
175
182
189
200
216
225
235
242
259
274
280
288
291
294
299
296
292
283
284
282
272
266
256
250
247
238
231
225
228
228
228
229
230
235
241
243
247
253
267
276
282
287
290
297
299
297
292
290
292
284
276
265
253
245
234
221
206
196
191
181
173
164
158
158
150
146
138
143
148
149
153
157
163
172
174
177
176
187
193
191
191
186
182
178
166
155
143
137
128
115
103
90
81
72
59
46
36
33
26
17
10
3
3
0
-5
-10
-8
-2
-3
-5
-10
-16
-19
-27
-38
-52
-62
-70
-85
-98
-114
-126
-132
-146
-156
-169
-170
-173
-180
-186
-193
-196
-194
-198
-197
-200
-188
-178
-173
-164
-158
-149
-140
-137
-133
-131
-123
-120
-123
-125
-133
-137
-143
-154
-165
-175
-178
-186
-196
-205
-215
-219
-226
-233
-241
-241
-235
-235
-232
-228
-223
-213
-205
-199
-194
-185
-173
-169
-164
-163
-162
-157
-162
-166
-175
-173
-172
-174
-174
-174
-168
-156
-148
-132
-115
-80
-45
-9
36
87
147
216
286
363
446
543
640
740
846
953
1068
1184
1296
1409
1525
1650
1770
1889
2011
2135
2270
2406
2550
2702
2870
3052
3236
3425
3619
3817
4022
4228
4437
4645
4860
5077
5286
5493
5692
5888
6084
6265
6442
6608
6773
6923
7054
7170
7267
7348
7414
7453
7481
7489
7496
7483
7451
7409
7352
7283
7197
7088
6959
6810
6649
6466
6262
6040
5797
5539
5259
4954
4631
4294
3951
3590
3211
2814
2400
1977
1540
1100
660
234
-177
-577
-960
-1325
-1670
-1992
-2299
-2587
-2862
-3113
-3348
-3577
-3789
-3987
-4164
-4312
-4444
-4549
-4631
-4680
-4708
-4721
-4713
-4690
-4646
-4583
-4517
-4436
-4349
-4242
-4134
-4025
-3911
-3795
-3673
-3549
-3428
-3305
-3182
-3050
-2924
-2803
-2682
-2565
-2445
-2328
-2217
-2108
-1997
-1882
-1776
-1672
-1571
-1473
-1371
-1277
-1189
-1106
-1020
-936
-861
-792
-728
-670
-614
-569
-528
-497
-461
-428
-407
-386
-371
-356
-338
-329
-320
-315
-303
-291
-285
-276
-269
-258
-241
-233
-219
-205
-179
-156
-138
-118
-101
-80
-60
-46
-32
-20
-2
9
14
19
21
26
28
24
20
18
23
21
17
13
9
9
5
1
-4
-2
5
9
14
20
27
39
44
50
52
63
73
74
77
75
74
74
66
60
50
48
44
34
27
17
11
8
-3
-11
-20
-18
-19
-21
-21
-20
-14
-5
0
9
19
37
50
60
70
77
87
94
94
92
92
95
91
84
75
65
59
47
34
20
11
6
-4
-13
-21
-27
-28
-34
-36
-41
-31
-21
-16
-7
-1
7
17
21
26
25
33
37
34
32
24
20
19
8
-2
-13
-15
-20
-28
-33
-40
-43
-45
-50
-54
-54
-45
-39
-34
-26
-18
-4
9
17
25
35
51
60
66
71
74
79
78
74
67
64
65
61
56
51
47
48
43
41
34
41
48
49
53
57
63
74
80
89
97
116
133
144
158
167
180
194
199
204
207
216
220
220
220
217
219
220
216
214
213
222
227
229
233
237
247
256
263
271
285
307
324
344
364
383
408
427
444
459
478
498
512
524
533
541
553
555
559
558
568
577
580
586
591
598
608
612
620
624
640
653
662
675
686
702
721
735
751
767
791
811
828
844
857
872
886
893
899
904
916
921
924
925
926
931
932
932
930
934
943
947
951
957
963
975
985
995
1004
1020
1041
1057
1075
1090
1105
1125
1135
1146
1151
1164
1175
1178
1180
1179
1179
1181
1175
1172
1165
1170
1172
1168
1167
1165
1166
1170
1169
1169
1169
1177
1182
1186
1193
1199
1210
1222
1228
1233
1240
1254
1260
1262
1263
1260
1261
1256
1246
1234
1227
1224
1213
1202
1190
1178
1170
1159
1147
1134
1126
1123
1115
1109
1102
1097
1100
1096
1096
1093
1100
1106
1105
1105
1102
1099
1099
1089
1080
1065
1060
1049
1030
1012
991
973
955
931
908
885
870
850
828
807
784
766
748
727
707
690
682
670
656
642
626
615
598
579
556
537
521
497
469
439
406
374
337
296
252
212
175
131
89
44
3
-33
-78
-119
-162
-195
-227
-262
-293
-324
-351
-373
-401
-425
-452
-466
-485
-509
-530
-554
-576
-599
-628
-656
-685
-707
-733
-762
-789
-819
-844
-870
-900
-929
-955
-974
-998
-1023
-1048
-1072
-1089
-1110
-1132
-1152
-1165
-1171
-1183
-1194
-1206
-1218
-1227
-1241
-1257
-1277
-1290
-1304
-1326
-1348
-1374
-1398
-1418
-1446
-1473
-1502
-1522
-1542
-1566
-1587
-1609
-1627
-1640
-1661
-1678
-1697
-1703
-1711
-1722
-1729
-1737
-1741
-1743
-1750
-1755
-1761
-1758
-1760
-1766
-1772
-1781
-1787
-1795
-1809
-1823
-1835
-1841
-1853
-1866
-1879
-1892
-1898
-1908
-1918
-1929
-1932
-1928
-1928
-1927
-1923
-1918
-1908
-1899
-1888
-1879
-1859
-1838
-1824
-1807
-1794
-1780
-1763
-1756
-1749
-1746
-1737
-1731
-1730
-1728
-1730
-1729
-1724
-1728
-1727
-1729
-1718
-1710
-1706
-1700
-1694
-1683
-1671
-1662
-1651
-1639
-1616
-1596
-1577
-1557
-1539
-1517
-1497
-1482
-1468
-1453
-1433
-1421
-1412
-1405
-1400
-1390
-1386
-1384
-1383
-1377
-1367
-1361
-1355
-1347
-1337
-1322
-1309
-1295
-1284
-1260
-1234
-1214
-1189
-1166
-1140
-1109
-1085
-1059
-1036
-1006
-978
-956
-933
-915
-895
-874
-865
-855
-849
-834
-823
-817
-811
-806
-798
-788
-781
-773
-765
-746
-732
-719
-705
-692
-673
-655
-640
-623
-602
-575
-553
-532
-513
-496
-474
-460
-449
-441
-430
-417
-412
-409
-408
-408
-403
-405
-406
-412
-406
-399
-399
-395
-393
-388
-379
-374
-367
-362
-346
-330
-319
-303
-291
-274
-254
-245
-234
-226
-211
-202
-199
-197
-198
-198
-200
-208
-215
-222
-220
-224
-229
-234
-238
-237
-238
-241
-243
-240
-229
-222
-214
-205
-195
-178
-164
-151
-139
-123
-104
-92
-82
-76
-70
-61
-62
-64
-71
-69
-69
-76
-80
-86
-90
-92
-98
-102
-108
-104
-100
-102
-99
-98
-94
-86
-86
-82
-77
-63
-51
-42
-31
-23
-13
-4
-1
2
5
14
16
13
9
2
-1
-6
-15
-24
-28
-26
-30
-32
-35
-37
-33
-33
-34
-34
-28
-18
-11
-4
4
14
29
36
44
47
60
71
75
79
79
78
79
71
62
48
44
35
19
5
-14
-29
-42
-62
-80
-99
-109
-122
-136
-148
-160
-167
-173
-183
-189
-194
-190
-190
-193
-195
-199
-198
-201
-209
-220
-226
-229
-240
-253
-266
-280
-289
-303
-318
-333
-343
-347
-356
-362
-370
-373
-370
-374
-374
-377
-366
-355
-349
-341
-334
-325
-313
-310
-305
-307
-297
-291
-294
-294
-299
-303
-305
-315
-322
-331
-331
-334
-341
-345
-350
-350
-349
-353
-355
-354
-345
-341
-339
-336
-333
-324
-317
-312
-309
-301
-289
-284
-279
-276
-274
-269
-269
-271
-277
-279
-279
-283
-287
-292
-297
-294
-301
-303
-307
-301
-294
-293
-289
-286
-280
-270
-266
-259
-255
-236
-219
-208
-193
-181
-166
-150
-141
-132
-125
-112
-103
-99
-96
-95
-91
-89
-92
-95
-97
-91
-92
-93
-94
-96
-92
-92
-93
-93
-87
-74
-68
-59
-50
-39
-23
-9
2
11
24
39
47
55
59
63
70
66
62
53
54
53
47
42
35
31
31
25
23
17
27
33
34
40
44
53
64
71
80
89
106
119
127
136
142
151
158
158
158
158
163
160
154
147
138
133
123
111
98
92
92
86
81
76
72
73
73
74
74
81
93
99
109
116
125
140
143
147
146
151
153
147
139
128
118
109
91
76
57
51
42
27
16
3
-4
-10
-18
-24
-27
-21
-17
-15
-10
-6
4
13
19
24
32
45
50
53
54
52
54
50
42
31
26
23
14
5
-5
-14
-19
-26
-32
-41
-40
-37
-39
-37
-38
-35
-26
-24
-19
-14
0
14
24
34
41
49
60
60
62
57
62
61
52
42
30
20
11
-3
-15
-26
-28
-33
-40
-44
-48
-46
-44
-45
-45
-41
-30
-23
-16
-10
-4
7
12
14
13
17
22
19
13
5
-6
-14
-29
-46
-66
-76
-86
-103
-117
-132
-143
-147
-156
-159
-162
-152
-138
-124
-103
-80
-48
-7
30
77
127
194
261
326
395
464
539
616
690
768
848
938
1024
1108
1197
1288
1386
1486
1586
1692
1808
1939
2074
2219
2375
2543
2728
2918
3115
3320
3539
3768
3996
4228
4460
4693
4926
5149
5366
5573
5784
5989
6182
6372
6552
6725
6893
7041
7176
7294
7404
7498
7572
7636
7687
7730
7766
7776
7776
7758
7733
7684
7610
7518
7404
7275
7126
6953
6758
6542
6311
6051
5765
5457
5126
4780
4414
4024
3609
3175
2730
2266
1797
1328
865
420
-15
-435
-838
-1216
-1571
-1911
-2233
-2539
-2825
-3090
-3346
-3584
-3812
-4009
-4188
-4352
-4490
-4606
-4696
-4761
-4810
-4838
-4850
-4835
-4805
-4767
-4714
-4653
-4578
-4490
-4405
-4309
-4210
-4097
-3983
-3869
-3753
-3636
-3513
-3390
-3272
-3152
-3032
-2904
-2783
-2667
-2551
-2438
-2324
-2215
-2115
-2020
-1926
-1830
-1747
-1669
-1597
-1530
-1464
-1408
-1358
-1313
-1268
-1223
-1187
-1154
-1124
-1095
-1063
-1041
-1018
-1001
-973
-947
-927
-906
-886
-865
-841
-821
-798
-779
-750
-723
-703
-681
-663
-642
-620
-608
-595
-584
-566
-553
-544
-534
-527
-516
-506
-500
-493
-484
-466
-453
-442
-430
-419
-402
-389
-377
-365
-347
-321
-302
-281
-261
-241
-217
-197
-179
-164
-145
-124
-111
-99
-90
-82
-71
-68
-63
-64
-54
-45
-41
-35
-31
-24
-14
-9
-1
3
20
35
44
59
72
89
110
124
139
153
175
192
206
218
227
237
245
246
245
244
251
251
247
243
237
236
232
226
219
217
220
217
215
213
213
219
222
225
229
239
254
263
272
278
285
297
299
301
298
305
311
309
308
304
302
302
296
292
284
290
294
292
294
293
297
302
303
306
311
323
334
343
353
363
377
390
397
404
413
427
435
439
443
444
449
449
445
439
439
442
438
434
430
426
425
421
415
408
406
407
403
400
395
393
398
396
398
398
408
417
421
426
429
432
438
436
436
431
437
439
436
437
435
436
439
438
438
439
448
455
459
465
470
480
492
499
507
518
539
554
568
583
595
611
622
631
637
649
663
671
677
681
683
690
692
693
691
695
703
705
711
714
719
731
735
743
749
767
784
798
816
832
851
875
890
909
921
947
967
980
994
1003
1014
1024
1028
1030
1032
1040
1044
1044
1046
1046
1051
1056
1058
1060
1066
1079
1088
1096
1104
1113
1127
1139
1150
1160
1179
1201
1217
1232
1246
1259
1274
1284
1291
1294
1303
1311
1311
1311
1307
1304
1306
1299
1293
1284
1284
1283
1279
1277
1273
1272
1276
1272
1272
1270
1283
1292
1296
1304
1309
1318
1326
1329
1331
1333
1341
1343
1339
1334
1326
1320
1311
1296
1282
1269
1263
1251
1238
1226
1213
1206
1194
1181
1167
1160
1158
1151
1145
1140
1135
1136
1134
1132
1128
1133
1138
1136
1135
1130
1126
1124
1112
1100
1083
1072
1059
1040
1023
1002
984
969
945
925
902
892
878
859
843
827
815
804
790
777
766
764
757
746
736
723
714
702
683
663
645
632
612
589
564
538
517
491
463
433
409
390
366
342
317
293
273
249
227
202
189
177
159
145
130
117
109
93
79
61
50
37
17
-2
-26
-49
-71
-104
-136
-172
-198
-228
-264
-299
-336
-369
-402
-440
-476
-512
-538
-568
-600
-631
-663
-689
-716
-747
-777
-803
-822
-848
-875
-904
-934
-959
-992
-1027
-1067
-1104
-1137
-1177
-1219
-1261
-1304
-1344
-1388
-1431
-1477
-1511
-1544
-1584
-1620
-1657
-1689
-1716
-1747
-1774
-1801
-1818
-1835
-1855
-1870
-1888
-1901
-1909
-1927
-1941
-1957
-1965
-1976
-1993
-2008
-2026
-2041
-2057
-2078
-2096
-2114
-2124
-2138
-2154
-2167
-2180
-2188
-2196
-2206
-2215
-2217
-2212
-2210
-2208
-2204
-2197
-2183
-2172
-2160
-2149
-2133
-2112
-2097
-2084
-2074
-2065
-2053
-2050
-2045
-2048
-2040
-2033
-2034
-2033
-2035
-2035
-2032
-2035
-2035
-2037
-2029
-2023
-2022
-2017
-2016
-2009
-1997
-1993
-1984
-1975
-1955
-1937
-1922
-1905
-1890
-1871
-1853
-1841
-1829
-1817
-1798
-1785
-1776
-1767
-1760
-1747
-1738
-1733
-1728
-1719
-1704
-1696
-1687
-1679
-1669
-1654
-1643
-1631
-1620
-1603
-1581
-1563
-1543
-1523
-1501
-1473
-1453
-1432
-1416
-1390
-1365
-1349
-1331
-1317
-1302
-1286
-1278
-1269
-1265
-1251
-1240
-1235
-1226
-1220
-1211
-1198
-1193
-1186
-1179
-1163
-1149
-1136
-1121
-1107
-1087
-1066
-1050
-1031
-1011
-982
-959
-940
-921
-906
-888
-874
-866
-862
-855
-845
-844
-843
-844
-846
-843
-844
-845
-847
-843
-834
-830
-826
-823
-816
-803
-796
-786
-778
-757
-737
-722
-704
-689
-673
-655
-645
-633
-627
-611
-600
-597
-593
-594
-593
-591
-595
-597
-600
-595
-593
-593
-591
-590
-584
-577
-574
-570
-563
-547
-535
-525
-513
-501
-484
-470
-459
-450
-437
-419
-410
-403
-398
-395
-390
-391
-395
-402
-406
-407
-414
-420
-428
-433
-433
-439
-442
-448
-442
-434
-432
-426
-422
-414
-403
-397
-387
-381
-360
-343
-332
-319
-310
-300
-289
-284
-281
-280
-273
-272
-273
-275
-279
-279
-280
-287
-293
-296
-290
-289
-288
-286
-284
-277
-272
-268
-265
-254
-237
-226
-212
-199
-185
-167
-152
-139
-130
-117
-104
-98
-94
-94
-94
-91
-98
-104
-113
-113
-112
-117
-119
-122
-121
-115
-117
-115
-116
-103
-93
-88
-79
-72
-61
-49
-41
-32
-23
-7
4
10
16
18
23
26
22
16
12
13
8
0
-7
-16
-21
-30
-40
-50
-53
-51
-55
-58
-62
-64
-61
-61
-60
-61
-54
-45
-42
-36
-34
-30
-23
-25
-27
-33
-31
-33
-41
-50
-63
-75
-85
-103
-117
-135
-140
-149
-162
-170
-180
-184
-187
-193
-197
-200
-193
-190
-189
-186
-183
-174
-166
-163
-160
-155
-144
-140
-139
-140
-144
-144
-149
-157
-168
-172
-171
-176
-181
-186
-190
-190
-191
-192
-195
-190
-183
-182
-179
-178
-175
-168
-168
-166
-166
-158
-151
-151
-149
-152
-153
-150
-159
-165
-176
-175
-179
-189
-197
-206
-212
-216
-225
-231
-235
-229
-225
-223
-219
-214
-203
-192
-185
-178
-166
-147
-132
-117
-102
-87
-68
-54
-43
-35
-23
-8
-2
1
1
0
1
-3
-7
-15
-13
-11
-15
-16
-19
-19
-14
-14
-12
-12
-2
8
15
25
32
44
60
67
78
85
102
113
117
122
123
125
125
118
110
99
94
84
71
59
46
39
30
19
8
2
4
1
-1
-2
-2
5
9
12
16
26
42
53
63
72
80
90
94
96
93
97
100
93
87
77
67
61
49
38
25
21
17
9
4
-2
-4
0
-4
-4
-3
10
20
27
37
45
57
69
76
83
88
99
103
102
99
92
88
79
65
48
35
27
14
1
-12
-24
-28
-35
-42
-50
-50
-45
-44
-41
-38
-34
-23
-17
-9
-4
12
26
33
41
44
48
54
52
49
40
39
35
24
15
2
-9
-16
-31
-44
-57
-60
-64
-71
-75
-80
-80
-78
-80
-80
-78
-65
-57
-50
-43
-37
-26
-19
-18
-19
-18
-13
-17
-24
-35
-47
-56
-71
-87
-104
-115
-121
-132
-141
-150
-156
-157
-164
-167
-174
-167
-159
-158
-152
-148
-140
-128
-121
-112
-107
-93
-82
-79
-74
-75
-74
-71
-79
-86
-96
-99
-105
-115
-125
-136
-144
-152
-164
-174
-182
-179
-182
-186
-187
-188
-183
-180
-179
-177
-171
-158
-152
-146
-142
-139
-132
-132
-136
-143
-147
-149
-158
-169
-182
-195
-203
-219
-233
-250
-256
-262
-272
-279
-287
-292
-292
-297
-299
-302
-294
-287
-284
-277
-271
-261
-248
-242
-235
-228
-215
-206
-202
-198
-198
-195
-194
-199
-204
-207
-203
-205
-211
-215
-221
-221
-223
-227
-232
-231
-224
-223
-222
-221
-220
-212
-208
-203
-199
-188
-173
-164
-155
-148
-142
-131
-131
-131
-137
-133
-132
-138
-143
-149
-154
-156
-163
-167
-173
-166
-161
-161
-157
-154
-145
-132
-124
-112
-100
-78
-59
-42
-23
-5
15
33
45
56
67
83
91
94
95
92
92
87
79
69
65
66
61
58
54
52
56
58
60
62
71
85
95
108
119
133
154
168
184
196
218
238
251
265
275
285
295
296
298
293
300
303
300
300
298
300
304
303
304
306
317
324
329
336
342
353
364
371
379
390
408
421
432
441
447
457
459
457
450
446
444
432
418
401
383
369
351
332
311
297
288
274
263
251
242
241
232
228
222
227
231
232
235
237
242
252
252
254
251
260
263
259
256
248
243
236
223
211
198
194
186
176
168
159
157
155
149
145
144
152
155
158
162
166
177
185
192
198
210
226
235
243
249
254
263
268
273
275
286
301
312
329
347
373
409
443
487
535
598
666
734
810
888
975
1071
1162
1261
1359
1473
1585
1694
1809
1925
2045
2166
2286
2410
2541
2686
2834
2987
3148
3314
3488
3663
3836
4012
4193
4382
4566
4749
4930
5110
5294
5472
5647
5819
5998
6181
6354
6522
6683
6835
6982
7115
7235
7340
7442
7535
7613
7685
7744
7795
7838
7859
7864
7845
7810
7751
7663
7555
7423
7272
7102
6895
6664
6402
6124
5818
5485
5135
4765
4379
3972
3538
3083
2614
2141
1660
1176
699
229
-223
-662
-1091
-1504
-1898
-2273
-2640
-2994
-3335
-3661
-3966
-4257
-4528
-4774
-4982
-5154
-5298
-5410
-5493
-5547
-5571
-5574
-5554
-5515
-5449
-5365
-5273
-5165
-5050
-4924
-4787
-4654
-4516
-4381
-4237
-4095
-3959
-3825
-3697
-3570
-3442
-3328
-3213
-3105
-2987
-2877
-2775
-2675
-2578
-2481
-2385
-2296
-2208
-2122
-2029
-1943
-1861
-1779
-1701
-1620
-1542
-1471
-1403
-1334
-1262
-1201
-1145
-1094
-1048
-1002
-967
-938
-915
-891
-867
-852
-840
-830
-821
-810
-805
-798
-794
-778
-761
-750
-735
-723
-708
-688
-675
-659
-645
-620
-596
-577
-554
-536
-515
-492
-480
-466
-457
-440
-430
-425
-421
-421
-419
-417
-420
-423
-424
-417
-415
-413
-409
-405
-394
-383
-374
-365
-349
-325
-306
-286
-265
-244
-215
-191
-170
-150
-127
-102
-84
-68
-57
-48
-37
-35
-34
-40
-36
-33
-39
-42
-48
-52
-51
-55
-55
-57
-49
-40
-35
-26
-18
-6
12
21
35
48
72
92
108
124
136
151
164
170
175
178
188
190
187
184
179
178
174
167
160
158
164
165
166
168
171
181
188
195
203
217
237
252
269
284
301
322
333
345
351
367
381
385
389
389
388
389
382
377
368
370
370
365
364
361
363
370
370
374
378
392
404
414
425
436
452
468
480
492
505
524
537
545
552
555
562
563
560
555
552
555
550
545
540
534
533
529
526
522
523
528
529
531
532
537
547
550
556
558
573
588
598
610
620
631
644
650
657
657
668
673
670
669
662
658
656
647
639
632
633
632
629
628
626
630
634
635
637
643
658
670
681
693
705
722
735
744
751
762
776
782
786
787
787
788
784
777
767
761
758
751
745
737
731
733
727
725
721
730
740
746
756
765
777
794
806
821
833
856
876
889
904
914
926
939
943
947
948
955
956
952
948
942
939
934
925
917
911
915
915
915
916
918
926
932
936
941
952
969
979
991
1002
1014
1029
1040
1047
1052
1060
1068
1068
1067
1061
1055
1053
1040
1030
1016
1013
1009
1000
993
986
982
982
975
971
964
971
975
974
976
976
980
986
987
990
994
1004
1009
1010
1011
1009
1010
1008
999
989
980
977
969
957
946
933
926
915
903
890
885
885
879
875
871
868
870
869
868
867
871
879
880
883
881
879
882
873
865
851
843
832
812
791
765
741
720
689
661
630
612
591
566
544
520
501
485
464
446
429
420
408
395
383
371
363
355
343
330
318
314
302
288
272
253
238
217
191
162
139
121
95
70
44
20
0
-22
-43
-66
-81
-94
-112
-126
-143
-156
-163
-177
-190
-204
-211
-218
-232
-246
-264
-281
-297
-324
-348
-379
-399
-425
-456
-486
-518
-546
-574
-607
-637
-666
-687
-712
-740
-765
-791
-812
-833
-858
-880
-899
-909
-925
-941
-957
-973
-984
-1001
-1019
-1040
-1056
-1069
-1091
-1114
-1139
-1166
-1190
-1217
-1245
-1276
-1298
-1318
-1344
-1366
-1390
-1410
-1424
-1443
-1459
-1475
-1482
-1487
-1495
-1500
-1505
-1506
-1501
-1505
-1504
-1507
-1499
-1495
-1497
-1497
-1501
-1503
-1508
-1518
-1529
-1542
-1547
-1558
-1572
-1584
-1598
-1606
-1616
-1628
-1638
-1645
-1643
-1646
-1648
-1649
-1649
-1641
-1637
-1632
-1627
-1615
-1597
-1584
-1570
-1558
-1547
-1532
-1523
-1514
-1511
-1501
-1492
-1492
-1491
-1494
-1496
-1494
-1500
-1503
-1509
-1506
-1502
-1502
-1498
-1497
-1490
-1478
-1474
-1465
-1456
-1436
-1418
-1402
-1384
-1367
-1345
-1322
-1305
-1288
-1273
-1251
-1236
-1226
-1219
-1215
-1209
-1206
-1209
-1213
-1213
-1208
-1209
-1211
-1214
-1217
-1213
-1214
-1216
-1219
-1216
-1207
-1202
-1196
-1190
-1183
-1170
-1161
-1150
-1142
-1122
-1103
-1092
-1079
-1071
-1063
-1054
-1052
-1050
-1053
-1048
-1047
-1053
-1056
-1063
-1067
-1067
-1076
-1080
-1086
-1080
-1077
-1075
-1070
-1065
-1055
-1043
-1035
-1026
-1014
-994
-977
-963
-948
-934
-916
-902
-893
-885
-875
-860
-854
-851
-850
-852
-850
-854
-859
-865
-867
-865
-867
-868
-868
-865
-856
-852
-846
-842
-825
-808
-796
-781
-768
-751
-730
-715
-699
-687
-667
-652
-645
-637
-635
-630
-624
-628
-631
-636
-634
-635
-639
-643
-648
-649
-649
-652
-653
-652
-640
-633
-627
-619
-610
-596
-584
-573
-562
-546
-524
-508
-494
-482
-471
-455
-447
-441
-439
-434
-426
-424
-423
-424
-423
-417
-419
-418
-420
-409
-398
-392
-382
-374
-362
-346
-333
-318
-304
-279
-254
-234
-209
-187
-161
-134
-116
-97
-81
-59
-43
-32
-22
-17
-10
-6
-11
-15
-21
-19
-25
-34
-42
-50
-52
-56
-61
-65
-63
-54
-50
-45
-40
-34
-22
-13
-5
3
14
27
33
38
39
38
42
34
28
15
12
7
-5
-14
-25
-34
-39
-49
-56
-65
-61
-59
-63
-63
-65
-63
-58
-59
-57
-56
-46
-38
-34
-28
-25
-19
-14
-16
-19
-21
-17
-20
-27
-36
-46
-52
-62
-74
-86
-93
-94
-100
-105
-111
-115
-115
-117
-120
-123
-121
-114
-113
-109
-106
-101
-89
-86
-80
-79
-69
-61
-60
-59
-60
-62
-62
-70
-77
-89
-88
-92
-102
-107
-116
-119
-120
-126
-129
-130
-123
-119
-117
-113
-110
-101
-93
-89
-83
-74
-57
-46
-38
-31
-26
-16
-12
-12
-16
-15
-12
-17
-23
-31
-39
-44
-52
-61
-72
-76
-77
-83
-87
-93
-96
-92
-97
-98
-102
-94
-85
-80
-73
-67
-58
-48
-47
-44
-46
-36
-32
-37
-41
-48
-54
-61
-74
-87
-99
-104
-114
-126
-137
-148
-154
-160
-170
-178
-183
-178
-177
-178
-176
-174
-165
-158
-152
-147
-136
-121
-114
-107
-103
-100
-95
-96
-100
-108
-111
-114
-125
-133
-145
-154
-158
-170
-179
-191
-192
-192
-197
-199
-203
-202
-198
-201
-199
-199
-184
-172
-166
-156
-149
-139
-130
-127
-123
-121
-113
-112
-116
-119
-126
-129
-134
-143
-153
-159
-158
-162
-166
-170
-174
-171
-171
-173
-174
-168
-158
-152
-144
-136
-127
-114
-104
-95
-90
-79
-67
-63
-57
-56
-54
-49
-54
-59
-68
-69
-71
-78
-84
-92
-96
-95
-103
-107
-114
-107
-104
-104
-100
-96
-88
-76
-68
-56
-44
-23
-7
5
17
25
36
44
46
45
45
51
48
42
36
28
26
17
7
-4
-7
-5
-8
-9
-10
-9
-3
1
6
9
23
39
49
63
74
88
106
116
126
133
146
157
160
163
161
160
162
153
149
141
145
145
140
137
134
134
136
133
132
132
142
149
153
159
165
177
188
195
201
211
226
232
236
238
238
241
237
230
220
214
211
203
194
185
177
174
166
161
154
159
165
165
169
170
175
185
189
195
199
212
225
232
239
242
247
255
250
247
240
240
235
223
210
195
184
173
158
144
130
127
119
110
104
97
97
96
91
88
90
99
103
107
111
115
125
128
128
125
127
131
128
123
115
105
97
83
68
49
42
34
19
9
-3
-11
-13
-20
-24
-29
-24
-19
-18
-13
-10
-3
10
15
23
30
46
57
63
69
71
74
74
66
57
47
44
34
21
7
-7
-15
-26
-39
-51
-58
-57
-61
-64
-67
-69
-65
-65
-66
-69
-65
-58
-55
-52
-50
-47
-42
-46
-49
-58
-58
-60
-71
-81
-94
-106
-115
-128
-137
-146
-144
-140
-140
-131
-122
-103
-77
-53
-21
17
71
130
192
260
332
411
495
577
663
752
852
948
1040
1134
1227
1326
1424
1520
1618
1723
1836
1947
2066
2193
2330
2481
2639
2806
2980
3165
3360
3555
3753
3952
4155
4362
4561
4762
4957
5162
5364
5558
5754
5945
6135
6324
6499
6668
6822
6975
7114
7235
7348
7448
7545
7639
7719
7791
7851
7906
7943
7955
7947
7914
7863
7792
7694
7575
7432
7271
7076
6852
6601
6323
6025
5698
5345
4967
4566
4139
3677
3191
2689
2177
1666
1155
651
158
-318
-773
-1216
-1638
-2044
-2429
-2790
-3141
-3469
-3782
-4064
-4324
-4563
-4771
-4948
-5090
-5197
-5280
-5331
-5360
-5353
-5327
-5288
-5228
-5157
-5070
-4971
-4869
-4758
-4642
-4515
-4390
-4265
-4136
-4008
-3875
-3743
-3618
-3493
-3367
-3236
-3112
-2993
-2875
-2762
-2645
-2535
-2430
-2328
-2224
-2116
-2017
-1921
-1829
-1742
-1655
-1577
-1506
-1442
-1378
-1317
-1267
-1221
-1184
-1149
-1113
-1089
-1066
-1049
-1023
-1000
-983
-965
-950
-933
-913
-901
-884
-872
-847
-825
-809
-788
-769
-746
-722
-702
-680
-658
-629
-605
-583
-562
-544
-522
-504
-492
-481
-470
-453
-442
-433
-424
-416
-403
-393
-386
-380
-369
-353
-344
-334
-324
-314
-299
-287
-275
-262
-243
-221
-205
-187
-173
-159
-140
-132
-123
-119
-107
-97
-93
-89
-89
-87
-83
-87
-89
-94
-86
-82
-83
-80
-80
-76
-72
-71
-69
-66
-54
-44
-36
-24
-13
4
20
30
41
54
74
87
97
106
113
125
131
135
138
146
159
165
171
177
184
196
205
213
220
233
250
261
275
285
299
318
330
345
357
377
395
407
419
427
436
447
447
448
443
450
451
446
443
437
434
430
421
414
406
407
403
397
391
385
384
382
376
373
374
385
391
398
406
413
426
434
441
445
456
469
475
480
482
483
486
485
483
477
479
481
476
475
471
468
471
466
463
458
462
467
469
474
477
486
500
507
517
525
544
560
569
579
586
596
604
606
607
607
614
616
615
614
611
612
613
610
607
608
616
619
621
623
625
633
638
644
650
664
683
697
711
724
738
754
764
774
778
789
799
800
802
799
798
800
794
789
781
782
783
779
779
777
779
786
785
788
790
805
817
826
838
850
865
881
891
903
914
932
945
953
960
964
971
974
971
968
968
974
972
970
967
965
969
969
968
966
970
979
984
989
995
1003
1016
1026
1038
1046
1066
1085
1097
1110
1120
1131
1144
1149
1154
1154
1161
1165
1162
1161
1156
1155
1157
1149
1145
1138
1142
1142
1139
1136
1133
1135
1137
1135
1135
1137
1149
1156
1160
1164
1166
1171
1172
1168
1161
1156
1155
1145
1132
1118
1103
1093
1077
1061
1044
1032
1024
1012
1001
991
983
980
972
968
960
965
971
970
974
976
981
989
990
993
991
997
1001
997
993
983
974
967
948
930
909
897
880
858
836
812
792
773
749
727
707
695
679
661
646
630
620
610
598
587
580
580
573
565
555
543
535
520
503
482
465
449
426
401
374
347
324
292
261
226
203
180
150
123
93
68
46
21
-1
-25
-36
-48
-64
-74
-86
-94
-100
-114
-127
-143
-152
-166
-186
-206
-231
-253
-279
-310
-342
-375
-401
-433
-468
-502
-537
-567
-599
-633
-667
-696
-718
-747
-775
-803
-829
-850
-873
-897
-921
-942
-959
-981
-1005
-1033
-1061
-1085
-1119
-1152
-1191
-1221
-1251
-1289
-1324
-1362
-1397
-1428
-1465
-1498
-1533
-1555
-1578
-1605
-1627
-1651
-1669
-1683
-1701
-1716
-1729
-1732
-1738
-1745
-1752
-1761
-1766
-1771
-1783
-1795
-1806
-1811
-1822
-1837
-1853
-1870
-1882
-1896
-1913
-1930
-1940
-1944
-1952
-1959
-1964
-1967
-1964
-1963
-1961
-1959
-1951
-1937
-1927
-1915
-1903
-1889
-1869
-1857
-1842
-1832
-1812
-1794
-1783
-1770
-1762
-1753
-1742
-1739
-1735
-1735
-1723
-1715
-1713
-1708
-1705
-1698
-1688
-1683
-1676
-1668
-1652
-1638
-1625
-1608
-1592
-1570
-1548
-1530
-1510
-1488
-1458
-1433
-1412
-1392
-1375
-1355
-1340
-1330
-1324
-1314
-1302
-1297
-1294
-1292
-1289
-1283
-1280
-1279
-1279
-1273
-1264
-1260
-1255
-1251
-1244
-1230
-1225
-1216
-1209
-1189
-1169
-1153
-1134
-1117
-1098
-1076
-1063
-1049
-1040
-1019
-1005
-999
-992
-990
-986
-983
-985
-987
-988
-982
-980
-979
-977
-976
-970
-964
-962
-959
-952
-937
-926
-916
-904
-892
-873
-856
-841
-828
-809
-787
-772
-759
-748
-739
-727
-721
-719
-721
-718
-714
-717
-719
-725
-729
-728
-734
-737
-741
-735
-729
-725
-719
-715
-706
-693
-687
-676
-668
-646
-627
-614
-599
-588
-575
-564
-558
-554
-553
-548
-551
-560
-570
-585
-596
-608
-625
-642
-655
-660
-669
-678
-686
-693
-693
-696
-699
-703
-699
-690
-685
-678
-671
-662
-649
-639
-630
-625
-614
-602
-598
-593
-592
-590
-584
-588
-592
-599
-598
-598
-603
-606
-612
-614
-611
-617
-618
-622
-612
-606
-604
-599
-594
-585
-573
-565
-555
-544
-525
-511
-501
-490
-482
-471
-462
-460
-459
-457
-449
-450
-453
-457
-462
-462
-467
-472
-479
-477
-470
-470
-468
-466
-463
-456
-452
-447
-444
-430
-414
-404
-390
-379
-367
-350
-342
-333
-329
-317
-308
-306
-304
-307
-309
-308
-317
-323
-333
-331
-334
-340
-345
-350
-351
-351
-354
-356
-356
-347
-340
-335
-327
-320
-307
-294
-285
-276
-266
-250
-242
-237
-235
-236
-233
-237
-243
-253
-257
-258
-265
-272
-279
-286
-287
-291
-294
-299
-292
-285
-284
-279
-275
-267
-254
-246
-236
-227
-209
-194
-184
-172
-165
-156
-144
-143
-141
-142
-134
-130
-133
-135
-139
-140
-141
-146
-150
-153
-147
-144
-143
-141
-139
-131
-124
-119
-113
-102
-83
-69
-54
-40
-26
-5
10
23
34
50
68
79
87
93
97
102
100
97
90
93
95
90
89
85
84
86
83
82
79
87
93
96
102
105
114
126
130
137
143
158
169
175
182
186
192
196
193
190
186
189
186
179
173
164
161
154
145
137
134
138
136
135
134
135
142
146
149
152
160
174
183
191
197
205
216
219
222
219
226
231
226
223
215
207
203
192
182
169
167
163
155
151
145
144
147
142
140
138
146
151
154
159
164
173
182
186
192
197
209
214
215
216
214
214
210
201
190
182
179
168
157
145
134
129
120
111
102
98
99
96
93
92
92
98
98
101
101
114
125
128
132
132
133
134
127
121
109
105
96
79
62
40
21
5
-19
-40
-61
-73
-86
-101
-114
-126
-133
-138
-147
-155
-161
-157
-157
-159
-158
-159
-155
-154
-157
-161
-162
-158
-163
-169
-178
-188
-195
-209
-224
-242
-255
-265
-280
-293
-307
-317
-320
-331
-339
-350
-348
-346
-348
-347
-347
-344
-337
-335
-330
-329
-316
-308
-307
-304
-306
-306
-305
-311
-317
-325
-328
-335
-345
-355
-366
-374
-382
-393
-403
-411
-409
-412
-415
-416
-416
-411
-407
-404
-401
-390
-373
-362
-350
-339
-329
-316
-307
-302
-299
-293
-285
-284
-285
-290
-294
-293
-302
-308
-319
-319
-319
-324
-326
-329
-329
-325
-328
-326
-328
-316
-307
-304
-296
-290
-280
-269
-263
-257
-252
-240
-233
-231
-229
-231
-230
-231
-238
-246
-253
-251
-256
-262
-269
-275
-276
-279
-284
-290
-288
-282
-281
-279
-276
-272
-263
-256
-249
-242
-229
-213
-203
-191
-183
-173
-159
-155
-150
-150
-140
-132
-130
-128
-127
-123
-116
-116
-113
-112
-97
-85
-77
-65
-54
-38
-19
-4
13
32
59
83
106
130
152
178
201
219
235
252
274
288
298
306
312
320
322
321
318
320
326
326
327
327
328
333
336
338
339
348
359
365
374
380
390
406
413
423
428
442
453
458
463
463
464
466
458
451
438
437
432
420
411
399
391
385
374
366
359
361
359
354
352
349
351
353
351
351
355
368
375
380
385
387
394
395
394
389
390
392
386
380
371
361
354
344
333
318
312
307
297
291
282
276
276
269
267
263
269
274
277
283
286
294
306
308
314
315
328
335
335
335
331
329
325
315
304
292
289
281
269
258
246
239
231
219
208
201
203
200
197
195
193
199
201
203
204
212
225
233
238
243
247
253
254
253
246
245
243
231
220
206
194
185
168
151
131
120
108
92
78
62
50
43
28
18
7
10
11
10
12
12
15
17
15
12
9
12
9
0
-9
-21
-30
-41
-57
-72
-84
-89
-100
-111
-120
-129
-131
-137
-142
-147
-145
-139
-137
-133
-129
-123
-112
-105
-97
-93
-80
-68
-65
-61
-62
-63
-62
-68
-75
-86
-89
-94
-106
-115
-129
-140
-146
-161
-171
-184
-185
-190
-198
-203
-209
-210
-210
-213
-214
-212
-202
-195
-191
-186
-183
-176
-173
-175
-180
-183
-181
-189
-198
-210
-223
-231
-245
-259
-274
-283
-286
-292
-298
-302
-304
-301
-302
-301
-302
-291
-278
-270
-256
-242
-224
-199
-178
-155
-132
-99
-64
-33
2
37
78
126
170
221
276
345
414
483
558
637
724
817
910
1007
1109
1223
1335
1448
1565
1684
1812
1940
2069
2202
2346
2505
2666
2833
3006
3185
3373
3556
3740
3923
4113
4307
4494
4679
4861
5041
5222
5392
5560
5722
5892
6060
6216
6369
6511
6644
6770
6878
6974
7055
7134
7198
7245
7285
7309
7324
7327
7306
7268
7207
7131
7027
6898
6746
6571
6378
6163
5920
5655
5368
5067
4739
4393
4035
3662
3277
2870
2442
2001
1555
1113
668
231
-195
-607
-999
-1378
-1741
-2087
-2411
-2717
-3013
-3294
-3565
-3820
-4057
-4286
-4494
-4684
-4836
-4961
-5065
-5139
-5191
-5216
-5215
-5197
-5156
-5099
-5014
-4916
-4811
-4691
-4565
-4428
-4281
-4137
-3987
-3835
-3675
-3517
-3365
-3215
-3072
-2929
-2791
-2664
-2542
-2425
-2305
-2197
-2096
-1998
-1906
-1811
-1723
-1640
-1561
-1478
-1393
-1316
-1241
-1168
-1098
-1026
-960
-899
-841
-781
-721
-669
-619
-576
-535
-493
-464
-438
-420
-395
-374
-363
-354
-350
-347
-342
-346
-347
-351
-343
-337
-336
-331
-326
-317
-304
-297
-288
-278
-260
-244
-230
-215
-202
-184
-167
-154
-141
-127
-107
-94
-86
-78
-74
-67
-66
-69
-75
-77
-76
-82
-89
-95
-102
-103
-107
-111
-114
-110
-101
-96
-89
-83
-75
-59
-53
-43
-36
-19
-2
9
21
31
41
53
55
58
56
65
68
63
60
50
42
34
20
6
-8
-14
-23
-33
-42
-51
-54
-56
-62
-65
-65
-56
-53
-50
-45
-40
-29
-21
-14
-10
1
15
22
28
33
36
42
43
41
37
37
41
38
36
31
30
35
32
33
31
40
50
55
61
66
74
87
93
103
109
129
144
152
162
168
176
183
183
182
179
181
178
170
162
152
147
141
132
124
119
124
124
123
124
126
133
139
144
149
161
179
191
205
218
231
248
260
271
277
290
302
305
309
308
307
310
303
298
289
290
292
291
291
291
295
305
307
314
318
336
350
359
373
385
403
421
437
454
471
494
510
521
532
538
548
554
553
552
551
557
556
555
554
554
559
562
564
566
576
592
604
616
628
642
661
676
692
705
728
753
770
789
804
820
840
850
859
865
876
885
887
889
886
886
890
885
884
881
892
900
906
916
925
938
952
963
976
989
1011
1028
1043
1060
1077
1097
1117
1131
1143
1157
1176
1186
1193
1198
1200
1206
1206
1203
1198
1199
1205
1205
1205
1206
1207
1214
1219
1224
1225
1237
1250
1258
1269
1278
1290
1307
1317
1329
1339
1358
1375
1385
1397
1402
1410
1419
1417
1416
1410
1415
1413
1406
1400
1393
1388
1384
1375
1367
1360
1362
1360
1355
1352
1347
1347
1346
1341
1336
1335
1341
1340
1340
1338
1336
1339
1335
1329
1320
1316
1314
1305
1294
1282
1269
1259
1242
1226
1206
1197
1186
1169
1155
1138
1124
1113
1098
1084
1068
1062
1055
1043
1034
1023
1016
1014
1002
993
982
979
971
958
944
926
911
893
867
841
813
791
764
734
703
671
643
614
581
549
522
502
475
449
422
396
377
355
333
310
294
283
266
248
229
210
193
170
146
116
96
73
42
11
-24
-57
-87
-123
-158
-196
-223
-250
-282
-310
-340
-364
-383
-408
-429
-451
-463
-478
-494
-508
-522
-531
-542
-557
-574
-591
-601
-618
-639
-661
-687
-710
-737
-768
-802
-831
-855
-886
-918
-950
-982
-1009
-1039
-1071
-1103
-1130
-1153
-1180
-1206
-1234
-1260
-1281
-1309
-1334
-1363
-1380
-1398
-1423
-1447
-1473
-1499
-1524
-1555
-1585
-1619
-1645
-1673
-1708
-1739
-1773
-1802
-1827
-1859
-1888
-1916
-1934
-1953
-1973
-1990
-2007
-2016
-2024
-2034
-2042
-2046
-2039
-2036
-2034
-2030
-2026
-2017
-2011
-2008
-2006
-2001
-1991
-1988
-1987
-1989
-1992
-1993
-1998
-2005
-2013
-2017
-2016
-2020
-2022
-2024
-2023
-2014
-2012
-2006
-2003
-1986
-1969
-1956
-1941
-1926
-1907
-1885
-1869
-1850
-1835
-1810
-1790
-1778
-1763
-1753
-1742
-1729
-1725
-1720
-1718
-1709
-1703
-1701
-1698
-1697
-1692
-1685
-1683
-1678
-1671
-1655
-1643
-1632
-1619
-1606
-1587
-1570
-1555
-1540
-1517
-1488
-1466
-1444
-1424
-1405
-1383
-1366
-1352
-1342
-1329
-1315
-1308
-1302
-1300
-1297
-1288
-1289
-1286
-1287
-1275
-1263
-1256
-1246
-1238
-1226
-1210
-1200
-1184
-1171
-1144
-1120
-1101
-1077
-1055
-1029
-1001
-981
-960
-941
-915
-895
-880
-866
-857
-847
-839
-837
-837
-835
-827
-824
-823
-821
-820
-813
-808
-806
-804
-795
-781
-773
-763
-752
-741
-724
-710
-696
-682
-664
-643
-628
-612
-600
-588
-572
-568
-564
-565
-559
-556
-560
-563
-569
-572
-572
-580
-583
-589
-581
-576
-576
-572
-569
-562
-551
-545
-537
-528
-510
-495
-482
-467
-454
-437
-423
-415
-408
-400
-388
-383
-383
-384
-388
-389
-394
-401
-410
-412
