9122
9329
9505
9652
9770
9840
9873
9878
9852
9802
9716
9606
9481
9350
9207
9024
8836
8635
8422
8202
7966
7725
7482
7243
7000
6732
6476
6217
5958
5703
5437
5179
4930
4693
4453
4205
3966
3727
3490
3251
3002
2757
2519
2292
2057
1815
1586
1359
1140
921
701
491
298
120
-63
-240
-400
-552
-692
-831
-965
-1086
-1192
-1285
-1382
-1472
-1552
-1626
-1690
-1762
-1827
-1884
-1925
-1960
-2013
-2054
-2094
-2132
-2169
-2215
-2259
-2299
-2328
-2357
-2405
-2436
-2467
-2495
-2520
-2554
-2580
-2598
-2603
-2610
-2624
-2627
-2628
-2625
-2622
-2626
-2623
-2612
-2589
-2575
-2567
-2549
-2533
-2516
-2506
-2504
-2499
-2488
-2471
-2472
-2475
-2473
-2474
-2473
-2479
-2488
-2492
-2487
-2473
-2471
-2463
-2450
-2435
-2414
-2405
-2393
-2375
-2344
-2308
-2291
-2263
-2235
-2206
-2175
-2157
-2138
-2118
-2089
-2063
-2060
-2043
-2031
-2021
-2013
-2016
-2017
-2014
-2001
-1994
-1995
-1987
-1978
-1966
-1956
-1953
-1944
-1926
-1898
-1879
-1867
-1844
-1823
-1799
-1781
-1767
-1749
-1722
-1687
-1669
-1652
-1630
-1612
-1593
-1584
-1580
-1574
-1563
-1549
-1550
-1550
-1547
-1545
-1539
-1548
-1554
-1556
-1545
-1530
-1530
-1521
-1510
-1498
-1483
-1479
-1471
-1458
-1432
-1406
-1400
-1378
-1357
-1338
-1320
-1314
-1305
-1294
-1276
-1266
-1270
-1266
-1266
-1266
-1272
-1288
-1300
-1305
-1301
-1307
-1320
-1321
-1325
-1324
-1329
-1337
-1339
-1330
-1311
-1307
-1299
-1284
-1269
-1250
-1236
-1225
-1210
-1188
-1161
-1152
-1138
-1125
-1115
-1103
-1110
-1116
-1120
-1115
-1110
-1121
-1125
-1128
-1132
-1133
-1146
-1154
-1158
-1147
-1135
-1143
-1133
-1123
-1112
-1100
-1096
-1087
-1072
-1048
-1028
-1019
-999
-983
-967
-956
-956
-954
-946
-932
-933
-942
-944
-951
-956
-970
-989
-1004
-1008
-1002
-1012
-1019
-1020
-1021
-1018
-1021
-1025
-1024
-1014
-996
-996
-986
-974
-963
-947
-946
-943
-937
-922
-907
-910
-907
-907
-908
-909
-927
-943
-955
-955
-958
-980
-988
-997
-1004
-1011
-1023
-1032
-1033
-1024
-1020
-1026
-1018
-1013
-1003
-997
-997
-991
-978
-954
-943
-938
-925
-916
-905
-904
-909
-912
-907
-897
-905
-913
-917
-922
-925
-935
-947
-954
-950
-939
-945
-939
-928
-916
-900
-893
-882
-866
-838
-807
-790
-764
-739
-715
-690
-683
-674
-663
-642
-628
-634
-632
-634
-638
-646
-664
-680
-692
-695
-705
-725
-732
-740
-743
-749
-761
-765
-759
-742
-735
-731
-717
-703
-684
-674
-667
-656
-637
-613
-604
-598
-589
-584
-579
-583
-591
-598
-595
-588
-602
-604
-604
-605
-601
-608
-610
-607
-594
-577
-575
-561
-546
-530
-510
-505
-493
-475
-444
-416
-403
-380
-359
-338
-322
-314
-306
-294
-275
-266
-268
-262
-258
-253
-252
-258
-260
-253
-235
-228
-222
-206
-190
-170
-157
-146
-129
-101
-65
-40
-15
16
47
81
106
128
151
184
220
231
252
271
287
304
307
311
317
332
350
351
364
378
394
414
422
437
460
496
530
551
584
616
650
682
706
733
766
807
838
857
883
904
924
934
934
935
940
951
946
937
934
928
925
912
897
888
890
899
897
897
903
910
920
921
921
926
943
963
961
970
978
984
988
980
971
962
960
956
931
917
900
882
864
831
805
784
774
762
739
728
717
709
700
684
673
669
676
675
664
666
665
667
663
652
645
645
651
641
628
620
608
597
577
553
531
516
508
487
465
449
433
422
400
381
368
368
373
358
355
353
352
353
345
339
337
346
356
346
349
350
350
349
332
317
306
302
293
271
256
240
225
207
180
159
144
141
131
114
109
103
101
94
83
77
82
96
96
97
105
110
118
117
111
109
112
119
111
101
93
81
71
45
20
-3
-12
-18
-44
-57
-69
-79
-86
-102
-114
-121
-115
-107
-119
-114
-109
-102
-93
-95
-92
-83
-65
-52
-51
-42
-36
-29
-27
-37
-44
-47
-42
-48
-64
-69
-75
-79
-88
-102
-110
-108
-95
-96
-95
-86
-76
-63
-56
-52
-42
-24
1
13
28
45
60
76
75
75
76
86
97
86
82
76
69
63
45
30
18
20
22
5
6
7
10
15
11
12
20
38
52
58
74
88
106
119
123
129
140
159
165
161
165
162
160
149
130
113
105
104
88
73
65
56
50
40
27
20
21
30
25
27
33
39
51
48
50
56
73
93
95
105
114
121
128
121
116
111
119
123
105
102
96
91
86
72
63
61
70
75
72
80
89
100
109
111
118
134
162
181
194
218
241
266
283
293
305
324
348
353
356
362
364
365
358
346
337
335
339
327
323
321
320
324
315
311
312
326
342
344
355
366
379
394
397
404
415
438
458
456
466
471
474
473
461
450
442
440
432
411
401
387
374
359
336
320
312
315
308
297
296
295
298
294
285
282
290
306
307
309
315
318
321
316
305
294
290
288
265
248
232
214
198
169
141
118
106
97
75
62
50
42
37
20
9
5
16
27
20
28
35
45
53
52
53
58
70
74
65
64
59
53
41
17
-5
-20
-26
-44
-67
-80
-95
-105
-121
-139
-151
-152
-143
-147
-150
-145
-140
-131
-128
-128
-124
-109
-89
-91
-83
-76
-71
-66
-76
-86
-96
-99
-102
-124
-137
-152
-166
-180
-208
-230
-247
-248
-250
-267
-270
-272
-270
-269
-273
-273
-267
-250
-238
-237
-224
-213
-202
-197
-202
-205
-202
-192
-196
-206
-211
-218
-224
-239
-258
-272
-276
-271
-279
-285
-284
-282
-276
-276
-277
-273
-257
-235
-234
-220
-206
-192
-175
-170
-163
-153
-135
-118
-120
-113
-108
-104
-101
-115
-125
-131
-126
-124
-138
-140
-144
-145
-148
-157
-162
-159
-147
-141
-145
-137
-131
-122
-116
-118
-114
-102
-80
-71
-67
-55
-47
-36
-38
-44
-48
-46
-39
-46
-57
-64
-74
-81
-99
-117
-133
-136
-135
-154
-160
-163
-166
-164
-171
-175
-173
-161
-146
-147
-135
-123
-110
-94
-93
-88
-79
-60
-46
-46
-39
-36
-34
-36
-48
-58
-64
-60
-65
-79
-81
-85
-84
-87
-96
-99
-93
-76
-71
-67
-55
-44
-28
-21
-18
-10
5
26
35
40
47
52
58
51
43
35
39
43
22
10
-5
-23
-44
-79
-117
-156
-189
-224
-279
-321
-365
-407
-443
-490
-526
-551
-559
-564
-574
-571
-566
-556
-548
-548
-545
-534
-511
-494
-485
-462
-438
-408
-378
-351
-314
-262
-197
-141
-79
-3
77
169
262
364
484
625
785
947
1121
1310
1511
1726
1942
2172
2421
2700
3002
3302
3630
3973
4330
4699
5066
5441
5825
6225
6629
7009
7398
7774
8131
8466
8760
9028
9270
9485
9661
9792
9898
9969
10008
10013
9982
9930
9861
9782
9676
9547
9414
9264
9100
8914
8707
8493
8278
8060
7817
7563
7307
7040
6769
6486
6196
5909
5629
5358
5078
4803
4536
4271
4014
3747
3487
3233
2996
2764
2518
2285
2058
1835
1617
1394
1178
970
778
589
383
197
13
-166
-340
-519
-689
-847
-989
-1128
-1270
-1396
-1514
-1622
-1725
-1829
-1921
-1999
-2061
-2126
-2194
-2247
-2297
-2341
-2387
-2435
-2475
-2504
-2522
-2553
-2583
-2606
-2629
-2650
-2679
-2710
-2738
-2759
-2773
-2801
-2824
-2841
-2858
-2869
-2894
-2914
-2929
-2929
-2925
-2937
-2938
-2938
-2934
-2928
-2931
-2930
-2925
-2904
-2883
-2882
-2864
-2848
-2832
-2817
-2812
-2805
-2793
-2774
-2761
-2761
-2753
-2748
-2742
-2741
-2748
-2751
-2747
-2732
-2727
-2728
-2718
-2708
-2693
-2684
-2678
-2666
-2642
-2609
-2591
-2570
-2542
-2513
-2482
-2456
-2434
-2409
-2377
-2341
-2321
-2298
-2274
-2253
-2231
-2227
-2221
-2214
-2198
-2180
-2179
-2171
-2163
-2154
-2142
-2143
-2139
-2131
-2108
-2085
-2083
-2064
-2045
-2024
-2003
-1990
-1972
-1948
-1914
-1885
-1867
-1839
-1815
-1790
-1771
-1762
-1750
-1733
-1709
-1699
-1697
-1687
-1681
-1673
-1673
-1678
-1678
-1668
-1649
-1645
-1639
-1625
-1611
-1594
-1582
-1572
-1557
-1534
-1503
-1490
-1467
-1441
-1416
-1388
-1374
-1359
-1341
-1315
-1288
-1278
-1262
-1248
-1236
-1224
-1228
-1229
-1227
-1211
-1198
-1204
-1194
-1185
-1175
-1165
-1161
-1154
-1140
-1118
-1100
-1092
-1072
-1053
-1031
-1012
-1001
-984
-961
-929
-911
-899
-880
-865
-848
-842
-842
-840
-830
-815
-818
-821
-819
-818
-817
-821
-829
-832
-825
-811
-815
-809
-799
-790
-775
-773
-766
-754
-730
-704
-692
-671
-650
-630
-607
-601
-592
-580
-556
-537
-537
-527
-521
-516
-514
-521
-524
-521
-511
-506
-511
-503
-495
-485
-477
-476
-469
-452
-425
-409
-397
-375
-355
-331
-315
-303
-288
-265
-236
-224
-214
-201
-191
-183
-183
-189
-194
-190
-182
-195
-198
-200
-201
-199
-207
-213
-213
-203
-190
-192
-183
-174
-165
-152
-155
-152
-144
-124
-109
-110
-102
-99
-97
-100
-114
-127
-139
-145
-160
-188
-207
-228
-248
-273
-306
-333
-351
-359
-378
-400
-411
-422
-427
-441
-456
-465
-465
-455
-457
-458
-453
-448
-441
-442
-445
-447
-439
-428
-441
-445
-451
-459
-467
-488
-508
-525
-534
-541
-565
-577
-588
-597
-602
-621
-631
-634
-623
-614
-616
-606
-596
-582
-568
-561
-550
-532
-506
-487
-481
-464
-453
-443
-441
-450
-458
-461
-458
-470
-486
-494
-505
-512
-528
-545
-556
-558
-551
-555
-557
-553
-548
-538
-535
-532
-523
-500
-472
-466
-446
-427
-409
-391
-385
-381
-376
-364
-355
-367
-368
-374
-382
-389
-411
-426
-437
-435
-435
-445
-443
-440
-432
-424
-421
-411
-392
-361
-336
-319
-288
-258
-225
-198
-178
-154
-124
-86
-63
-44
-20
0
20
30
35
43
58
79
88
96
110
125
144
154
166
183
215
251
268
296
326
357
389
414
440
469
508
546
562
590
612
632
649
648
648
650
658
660
647
643
635
630
622
605
594
590
598
599
593
599
605
614
619
618
623
637
661
670
678
692
703
715
716
712
709
710
714
703
689
677
662
649
621
596
574
566
563
540
530
523
518
516
505
498
496
506
517
507
513
518
524
530
525
524
527
537
540
531
529
524
519
509
488
470
457
453
439
417
406
394
384
370
351
337
333
339
331
324
325
325
330
327
321
320
327
340
341
342
347
350
355
346
337
330
335
341
326
319
311
303
297
280
265
254
256
259
241
241
240
240
241
233
230
233
246
255
256
267
278
290
300
300
303
311
328
333
329
333
333
332
324
307
294
288
291
277
263
256
247
242
230
215
205
203
209
201
199
201
203
212
206
204
207
222
239
238
244
250
255
260
251
244
239
245
249
230
225
218
211
203
184
169
159
159
154
139
136
132
131
128
117
113
117
132
136
135
145
153
163
164
160
157
163
174
166
156
149
139
129
112
90
71
59
52
29
14
2
-10
-16
-36
-52
-62
-60
-54
-64
-65
-64
-61
-55
-60
-60
-57
-41
-27
-36
-31
-30
-29
-33
-47
-61
-71
-75
-85
-105
-115
-127
-137
-151
-173
-189
-196
-193
-199
-210
-210
-210
-206
-208
-214
-213
-202
-182
-177
-172
-162
-154
-146
-145
-149
-154
-153
-148
-164
-174
-183
-194
-202
-224
-243
-258
-263
-264
-279
-286
-291
-294
-293
-305
-310
-310
-294
-279
-281
-267
-255
-240
-227
-221
-213
-202
-183
-172
-173
-166
-164
-163
-169
-187
-203
-211
-210
-221
-237
-244
-253
-256
-267
-281
-290
-287
-275
-277
-276
-267
-257
-242
-231
-220
-205
-179
-147
-136
-117
-97
-79
-61
-58
-55
-52
-42
-33
-43
-44
-47
-50
-51
-66
-75
-78
-67
-59
-66
-59
-52
-43
-34
-31
-22
-7
20
42
54
79
101
125
143
152
163
179
201
208
207
213
213
213
203
187
175
172
176
166
157
155
153
154
149
144
143
155
174
173
187
203
219
241
252
265
281
304
327
332
345
355
362
368
355
345
338
340
338
320
312
303
298
291
278
270
268
277
280
274
281
286
296
302
302
307
321
345
357
365
379
390
401
400
394
388
389
395
384
370
360
346
334
313
290
270
264
263
241
234
229
226
228
221
219
222
236
253
254
269
283
298
314
314
318
324
340
350
344
343
337
330
318
295
274
258
252
238
215
203
190
182
171
154
144
143
153
151
150
157
164
175
179
180
186
201
220
226
229
234
237
239
228
214
200
195
193
166
151
137
121
108
86
67
53
49
49
30
28
26
26
30
21
19
25
42
57
60
73
83
93
100
95
91
91
98
93
75
67
53
40
20
-8
-31
-46
-53
-73
-93
-104
-115
-121
-133
-146
-152
-148
-137
-136
-134
-127
-120
-110
-111
-112
-111
-99
-87
-98
-102
-107
-116
-125
-147
-170
-191
-203
-214
-244
-258
-272
-283
-291
-309
-320
-324
-316
-309
-312
-303
-294
-282
-272
-269
-263
-249
-226
-214
-212
-201
-195
-189
-192
-204
-215
-219
-216
-231
-248
-258
-270
-278
-295
-314
-328
-333
-328
-333
-334
-330
-324
-312
-313
-311
-304
-284
-259
-253
-237
-220
-205
-190
-186
-183
-179
-165
-154
-167
-165
-167
-171
-176
-194
-207
-213
-210
-210
-219
-218
-215
-208
-201
-201
-194
-179
-154
-136
-127
-106
-88
-67
-54
-47
-36
-16
10
19
27
39
47
54
52
45
40
40
44
34
26
21
15
14
-1
-12
-18
-11
0
-7
-5
-2
2
9
6
6
12
32
52
52
68
82
94
105
105
105
109
119
123
115
115
111
109
104
90
81
79
87
85
77
82
85
92
94
91
95
109
132
141
151
168
183
200
209
214
221
233
250
249
251
253
252
253
236
219
203
196
188
159
135
107
75
41
-7
-54
-99
-131
-164
-217
-252
-287
-317
-344
-373
-392
-403
-402
-406
-419
-421
-425
-427
-434
-450
-460
-461
-452
-451
-454
-442
-427
-403
-381
-357
-323
-271
-203
-143
-73
14
109
220
338
468
615
784
970
1152
1351
1564
1790
2034
2280
2547
2837
3156
3495
3834
4195
4568
4950
5344
5732
6130
6534
6949
7357
7731
8102
8449
8768
9053
9295
9506
9688
9845
9964
10039
10092
10113
10107
10073
10006
9922
9827
9723
9590
9432
9266
9080
8881
8661
8425
8183
7940
7694
7423
7145
6867
6584
6302
6015
5727
5445
5176
4915
4638
4374
4114
3856
3604
3340
3081
2829
2590
2355
2108
1872
1641
1414
1193
962
740
526
329
134
-75
-265
-450
-628
-800
-971
-1130
-1276
-1405
-1531
-1659
-1767
-1868
-1959
-2046
-2134
-2212
-2276
-2324
-2379
-2435
-2478
-2520
-2555
-2597
-2641
-2680
-2708
-2729
-2764
-2799
-2828
-2859
-2888
-2922
-2959
-2992
-3012
-3025
-3057
-3077
-3092
-3106
-3113
-3130
-3143
-3149
-3143
-3134
-3137
-3129
-3120
-3107
-3091
-3089
-3080
-3065
-3037
-3013
-3006
-2988
-2973
-2957
-2946
-2944
-2941
-2935
-2920
-2914
-2920
-2915
-2912
-2907
-2904
-2909
-2908
-2896
-2874
-2862
-2853
-2833
-2814
-2788
-2771
-2756
-2736
-2706
-2667
-2641
-2614
-2582
-2551
-2518
-2495
-2475
-2453
-2420
-2384
-2372
-2349
-2326
-2307
-2286
-2277
-2266
-2251
-2227
-2201
-2190
-2167
-2145
-2121
-2095
-2083
-2065
-2042
-2004
-1969
-1947
-1913
-1881
-1845
-1811
-1785
-1756
-1723
-1682
-1651
-1632
-1606
-1584
-1564
-1552
-1552
-1551
-1543
-1529
-1528
-1531
-1526
-1522
-1514
-1514
-1515
-1509
-1493
-1468
-1454
-1439
-1417
-1394
-1367
-1350
-1332
-1311
-1277
-1240
-1225
-1199
-1174
-1151
-1128
-1118
-1109
-1098
-1081
-1066
-1071
-1066
-1064
-1063
-1061
-1075
-1082
-1083
-1072
-1062
-1062
-1051
-1039
-1024
-1009
-1001
-988
-967
-935
-910
-894
-866
-841
-814
-793
-781
-768
-749
-724
-716
-713
-705
-703
-701
-709
-722
-731
-732
-727
-733
-740
-740
-739
-732
-735
-736
-733
-715
-692
-690
-677
-662
-648
-632
-625
-616
-605
-585
-565
-568
-558
-553
-549
-547
-561
-572
-579
-578
-583
-600
-609
-618
-625
-634
-651
-662
-665
-657
-657
-664
-659
-656
-649
-647
-651
-651
-641
-623
-620
-618
-608
-602
-594
-598
-607
-614
-617
-616
-629
-644
-657
-673
-685
-711
-736
-757
-764
-768
-791
-801
-809
-816
-820
-832
-840
-844
-835
-825
-834
-827
-820
-813
-804
-807
-806
-801
-788
-781
-788
-788
-793
-798
-809
-831
-850
-864
-869
-883
-905
-916
-928
-937
-951
-969
-982
-984
-975
-979
-981
-974
-968
-958
-955
-955
-949
-935
-915
-909
-903
-894
-888
-881
-889
-897
-904
-901
-897
-915
-925
-935
-945
-954
-972
-988
-1000
-997
-993
-1007
-1004
-999
-992
-983
-983
-978
-966
-945
-927
-920
-903
-889
-872
-860
-859
-855
-846
-829
-825
-831
-830
-833
-835
-846
-863
-876
-879
-872
-880
-886
-883
-880
-873
-872
-872
-867
-853
-832
-824
-810
-792
-774
-750
-740
-727
-708
-677
-644
-629
-606
-583
-562
-540
-530
-519
-506
-482
-459
-459
-443
-427
-411
-394
-386
-373
-352
-322
-295
-276
-247
-218
-186
-157
-136
-110
-76
-31
4
32
69
103
139
167
188
211
242
279
297
313
332
348
365
375
381
391
408
432
440
455
474
494
519
531
546
567
600
635
655
682
710
738
769
786
806
828
862
892
899
919
934
947
955
953
950
951
959
961
952
953
953
956
956
948
946
951
966
971
971
981
990
1003
1008
1009
1014
1029
1051
1057
1062
1071
1077
1082
1078
1068
1058
1054
1053
1031
1016
1002
987
975
949
925
907
899
896
879
871
865
861
860
847
839
837
849
861
854
863
870
877
881
876
872
871
875
870
853
844
830
815
793
762
735
714
703
679
650
632
614
601
582
560
544
539
544
536
530
532
534
539
539
537
538
547
560
550
549
546
540
534
512
489
467
454
440
410
389
367
346
329
298
274
258
257
255
238
235
233
233
232
225
223
226
240
248
246
254
257
261
259
246
234
228
228
215
194
182
166
152
129
104
83
74
73
60
50
49
49
53
52
50
52
67
87
87
100
113
126
140
142
144
148
159
169
161
161
158
154
150
128
111
98
99
96
78
71
63
58
54
44
38
39
52
58
55
64
72
83
90
89
94
107
129
138
142
153
161
171
170
163
157
159
165
157
147
143
138
137
128
118
111
117
128
117
121
126
132
142
140
141
146
159
172
164
164
158
145
126
83
39
-7
-49
-102
-175
-244
-317
-391
-467
-548
-621
-684
-731
-779
-830
-863
-893
-916
-940
-967
-984
-987
-975
-969
-960
-934
-904
-862
-819
-766
-693
-594
-474
-353
-219
-65
101
285
475
682
909
1166
1447
1726
2038
2372
2727
3105
3494
3906
4341
4803
5280
5748
6234
6716
7194
7668
8122
8577
9029
9481
9916
10318
10706
11063
11393
11690
11945
12168
12358
12519
12631
12694
12732
12731
12703
12641
12547
12436
12312
12180
12018
11839
11653
11450
11236
10998
10742
10475
10202
9922
9619
9303
8979
8643
8299
7933
7559
7178
6803
6427
6026
5637
5249
4863
4479
4089
3703
3326
2966
2614
2250
1912
1581
1263
957
649
358
85
-166
-408
-648
-865
-1071
-1261
-1441
-1617
-1777
-1918
-2039
-2159
-2279
-2380
-2475
-2562
-2649
-2738
-2819
-2887
-2945
-3014
-3082
-3140
-3197
-3249
-3307
-3366
-3416
-3456
-3486
-3525
-3560
-3588
-3612
-3629
-3656
-3677
-3691
-3689
-3679
-3686
-3680
-3670
-3659
-3647
-3644
-3641
-3636
-3621
-3607
-3615
-3610
-3608
-3610
-3613
-3630
-3644
-3652
-3653
-3657
-3673
-3678
-3684
-3685
-3689
-3699
-3702
-3696
-3677
-3665
-3659
-3640
-3621
-3597
-3577
-3561
-3540
-3511
-3473
-3452
-3431
-3403
-3380
-3356
-3343
-3334
-3325
-3311
-3294
-3292
-3289
-3283
-3279
-3271
-3276
-3278
-3274
-3255
-3232
-3226
-3208
-3187
-3163
-3136
-3117
-3093
-3063
-3018
-2972
-2946
-2904
-2863
-2824
-2785
-2760
-2732
-2703
-2668
-2641
-2628
-2609
-2596
-2583
-2574
-2576
-2575
-2566
-2548
-2539
-2536
-2522
-2509
-2491
-2477
-2467
-2449
-2420
-2379
-2351
-2321
-2282
-2244
-2201
-2165
-2134
-2099
-2060
-2017
-1992
-1966
-1941
-1920
-1899
-1896
-1892
-1887
-1871
-1854
-1855
-1847
-1839
-1830
-1818
-1816
-1809
-1798
-1771
-1744
-1737
-1712
-1687
-1660
-1632
-1612
-1587
-1556
-1518
-1485
-1465
-1435
-1409
-1383
-1364
-1357
-1348
-1336
-1317
-1313
-1318
-1315
-1315
-1312
-1318
-1328
-1334
-1329
-1316
-1317
-1316
-1307
-1298
-1285
-1277
-1271
-1261
-1242
-1216
-1207
-1190
-1172
-1155
-1137
-1135
-1133
-1129
-1117
-1105
-1112
-1114
-1117
-1122
-1127
-1144
-1158
-1168
-1164
-1161
-1178
-1177
-1177
-1173
-1170
-1173
-1172
-1163
-1145
-1130
-1124
-1107
-1091
-1073
-1058
-1053
-1043
-1028
-1005
-996
-996
-990
-989
-988
-998
-1015
-1031
-1038
-1039
-1056
-1073
-1083
-1095
-1103
-1116
-1130
-1139
-1137
-1128
-1135
-1133
-1128
-1122
-1111
-1113
-1110
-1101
-1082
-1060
-1054
-1041
-1029
-1017
-1007
-1013
-1016
-1018
-1009
-1005
-1022
-1028
-1036
-1044
-1053
-1070
-1083
-1089
-1085
-1085
-1094
-1090
-1086
-1079
-1074
-1076
-1072
-1058
-1034
-1021
-1012
-992
-975
-956
-946
-944
-939
-927
-911
-912
-917
-918
-923
-928
-941
-958
-972
-976
-973
-989
-993
-994
-994
-989
-994
-996
-992
-977
-959
-955
-942
-928
-911
-892
-887
-877
-863
-838
-817
-816
-806
-799
-792
-791
-800
-809
-813
-811
-816
-832
-836
-842
-846
-852
-864
-870
-867
-852
-848
-847
-836
-825
-809
-801
-795
-785
-764
-735
-720
-706
-686
-668
-649
-639
-632
-624
-606
-585
-587
-579
-571
-565
-556
-558
-559
-555
-540
-522
-519
-504
-487
-467
-444
-434
-417
-393
-356
-320
-300
-267
-236
-201
-169
-145
-118
-87
-48
-18
1
29
52
76
94
103
115
133
161
175
186
204
221
243
257
269
288
316
353
379
406
440
475
514
545
577
612
659
711
740
779
818
853
888
910
930
949
975
998
1001
1013
1023
1030
1039
1032
1029
1032
1046
1059
1060
1072
1083
1097
1111
1117
1129
1146
1175
1195
1206
1227
1245
1263
1275
1276
1279
1287
1299
1295
1284
1277
1264
1253
1230
1203
1180
1166
1159
1141
1122
1110
1099
1092
1077
1062
1053
1059
1069
1059
1063
1068
1073
1081
1079
1078
1081
1093
1104
1093
1094
1090
1084
1076
1050
1028
1008
996
980
951
931
910
892
872
845
825
812
812
804
789
787
785
786
782
772
767
771
785
784
780
782
780
779
766
748
732
721
713
692
668
647
624
603
571
539
512
499
491
463
448
436
426
419
405
394
388
392
399
386
389
391
394
398
389
383
382
387
387
372
364
352
339
321
293
268
249
241
223
198
184
170
161
147
129
117
116
125
121
119
125
129
137
138
136
139
149
165
167
169
173
175
178
166
153
142
143
145
126
116
106
96
88
70
55
44
47
52
37
39
41
45
52
49
51
59
77
90
93
105
115
127
134
130
129
132
144
143
131
127
119
112
97
75
58
50
52
39
27
24
21
23
18
12
10
17
31
33
39
49
60
75
75
79
87
105
125
123
129
133
136
137
124
111
100
100
99
76
69
61
55
49
34
24
20
26
27
18
19
19
22
22
14
12
17
32
36
32
38
40
43
38
26
17
16
21
7
-6
-15
-28
-38
-55
-75
-92
-100
-100
-113
-118
-119
-119
-112
-118
-118
-112
-91
-66
-56
-36
-14
9
35
47
63
80
108
133
133
146
152
157
159
150
142
138
142
141
129
128
125
127
128
121
121
129
149
159
164
179
193
211
222
227
237
256
283
291
298
308
314
318
314
303
292
288
288
269
257
247
236
228
207
189
178
178
183
173
172
173
176
182
177
176
181
199
217
215
227
237
246
252
247
243
242
247
244
227
219
207
196
179
153
133
120
118
106
91
86
81
82
76
68
65
75
93
97
102
115
126
140
147
150
155
167
182
176
177
177
173
169
149
129
111
102
94
71
57
44
32
24
4
-10
-17
-8
0
-9
-3
2
9
15
13
16
23
40
51
51
62
69
76
77
67
59
57
62
52
36
28
16
7
-12
-34
-50
-56
-53
-63
-72
-73
-74
-72
-76
-80
-81
-71
-56
-61
-54
-45
-38
-28
-32
-36
-37
-32
-26
-37
-40
-46
-53
-58
-80
-97
-111
-111
-115
-133
-140
-148
-152
-157
-168
-176
-177
-167
-161
-165
-156
-150
-140
-133
-134
-130
-117
-96
-89
-87
-79
-74
-66
-71
-81
-89
-90
-86
-97
-109
-116
-124
-129
-141
-155
-164
-160
-151
-163
-162
-159
-156
-149
-152
-152
-146
-130
-111
-109
-95
-82
-70
-57
-61
-61
-58
-44
-36
-45
-46
-51
-56
-65
-83
-97
-106
-105
-110
-125
-127
-129
-128
-131
-139
-141
-132
-112
-103
-97
-82
-68
-50
-41
-35
-25
-8
14
21
25
33
37
41
34
22
12
12
15
-4
-12
-19
-25
-28
-40
-49
-53
-45
-35
-41
-33
-24
-15
-2
-4
2
14
37
58
66
83
96
110
120
120
122
128
142
145
135
135
132
130
123
108
99
98
108
106
101
106
110
118
118
117
122
137
160
173
186
204
221
241
249
255
262
279
298
291
293
293
290
287
272
256
243
239
237
214
207
200
194
191
175
166
165
176
185
184
194
203
215
225
227
232
244
265
276
276
285
289
292
287
272
257
249
246
227
206
192
175
162
140
117
101
94
96
88
82
82
84
90
87
85
89
106
128
129
141
153
163
172
169
165
161
164
165
141
131
115
98
81
51
27
8
0
-11
-31
-39
-48
-53
-58
-69
-74
-69
-52
-43
-42
-28
-15
0
9
11
15
26
43
42
39
40
35
31
16
-4
-22
-33
-38
-55
-71
-81
-91
-95
-109
-119
-123
-112
-96
-97
-86
-74
-61
-45
-39
-31
-18
6
30
31
46
57
66
71
63
55
50
51
45
27
17
6
-3
-15
-36
-50
-56
-50
-53
-61
-58
-55
-48
-48
-52
-51
-40
-20
-16
-11
0
7
17
18
13
10
12
18
7
-3
-12
-24
-33
-58
-82
-102
-109
-113
-135
-146
-154
-161
-165
-178
-188
-192
-181
-169
-177
-167
-157
-147
-137
-137
-133
-124
-109
-100
-105
-101
-102
-103
-110
-128
-144
-154
-157
-171
-193
-204
-216
-225
-239
-256
-266
-264
-252
-255
-255
-246
-239
-228
-223
-221
-215
-201
-182
-178
-170
-161
-155
-148
-157
-166
-172
-170
-167
-183
-192
-203
-214
-224
-246
-263
-276
-274
-272
-289
-289
-289
-287
-284
-288
-288
-281
-265
-254
-252
-239
-226
-210
-197
-193
-186
-172
-150
-140
-138
-127
-121
-114
-117
-126
-132
-128
-117
-121
-123
-119
-114
-105
-101
-98
-91
-73
-48
-39
-20
2
24
51
65
82
104
136
170
187
210
232
253
274
278
285
293
313
329
323
329
331
332
329
318
309
305
311
312
304
308
310
316
319
315
316
325
346
356
361
377
391
407
412
412
415
426
441
439
436
436
432
429
416
399
385
379
379
359
349
343
336
333
317
304
296
299
303
294
294
295
298
304
295
290
287
294
293
269
251
225
193
150
93
31
-31
-89
-156
-238
-308
-379
-446
-513
-583
-642
-686
-717
-755
-793
-817
-838
-852
-872
-891
-900
-894
-874
-863
-846
-818
-786
-747
-710
-671
-626
-566
-497
-445
-377
-299
-215
-116
-17
99
234
392
564
731
918
1118
1332
1565
1803
2068
2361
2688
3035
3388
3770
4167
4579
5002
5426
5860
6300
6746
7177
7581
7975
8339
8672
8964
9208
9417
9596
9749
9854
9921
9964
9974
9961
9915
9843
9757
9665
9565
9440
9299
9148
8982
8806
8612
8407
8199
7993
7782
7536
7292
7039
6779
6516
6239
5961
5685
5416
5147
4858
4578
4296
4013
3732
3436
3147
2866
2599
2334
2059
1799
1545
1299
1059
819
591
377
181
-14
-209
-385
-556
-717
-877
-1039
-1191
-1329
-1453
-1585
-1716
-1835
-1951
-2059
-2172
-2283
-2383
-2470
-2544
-2626
-2701
-2766
-2825
-2877
-2935
-2988
-3034
-3062
-3082
-3122
-3146
-3165
-3182
-3194
-3213
-3228
-3238
-3238
-3236
-3252
-3255
-3260
-3266
-3270
-3289
-3303
-3312
-3311
-3313
-3327
-3331
-3334
-3335
-3337
-3346
-3350
-3347
-3332
-3324
-3324
-3310
-3298
-3281
-3268
-3260
-3247
-3223
-3190
-3169
-3150
-3124
-3100
-3073
-3057
-3045
-3030
-3009
-2983
-2970
-2959
-2945
-2933
-2918
-2915
-2912
-2905
-2884
-2859
-2854
-2837
-2818
-2798
-2774
-2757
-2738
-2713
-2676
-2637
-2617
-2579
-2541
-2503
-2463
-2438
-2409
-2376
-2335
-2300
-2279
-2252
-2229
-2207
-2190
-2185
-2177
-2163
-2141
-2129
-2126
-2113
-2102
-2087
-2077
-2072
-2062
-2042
-2012
-1996
-1979
-1954
-1930
-1902
-1881
-1862
-1838
-1806
-1769
-1746
-1724
-1700
-1678
-1655
-1647
-1641
-1634
-1615
-1596
-1598
-1592
-1586
-1580
-1572
-1574
-1573
-1568
-1550
-1530
-1531
-1513
-1495
-1475
-1453
-1441
-1423
-1398
-1362
-1330
-1307
-1274
-1244
-1213
-1188
-1173
-1156
-1135
-1107
-1090
-1085
-1071
-1061
-1051
-1050
-1056
-1058
-1052
-1037
-1037
-1036
-1027
-1020
-1009
-1005
-1002
-994
-978
-954
-941
-925
-903
-881
-855
-842
-827
-809
-780
-750
-742
-728
-715
-705
-697
-701
-706
-709
-702
-697
-714
-714
-717
-718
-718
-726
-729
-725
-711
-702
-701
-689
-677
-662
-649
-645
-634
-615
-587
-569
-560
-542
-529
-516
-513
-518
-523
-521
-514
-526
-540
-550
-563
-574
-593
-615
-633
-643
-645
-661
-671
-676
-680
-677
-687
-694
-695
-682
-665
-664
-654
-643
-633
-623
-627
-630
-632
-624
-619
-639
-646
-658
-672
-690
-719
-745
-767
-780
-797
-824
-839
-855
-866
-878
-897
-908
-911
-900
-899
-903
-895
-890
-880
-879
-883
-883
-875
-861
-865
-871
-873
-880
-888
-904
-925
-946
-961
-971
-997
-1017
-1033
-1050
-1062
-1088
-1109
-1124
-1127
-1126
-1140
-1144
-1147
-1148
-1145
-1154
-1158
-1158
-1142
-1127
-1132
-1121
-1113
-1104
-1099
-1104
-1108
-1108
-1102
-1104
-1119
-1125
-1135
-1144
-1158
-1181
-1199
-1210
-1210
-1220
-1236
-1241
-1247
-1248
-1257
-1269
-1276
-1273
-1260
-1262
-1262
-1256
-1251
-1242
-1240
-1240
-1238
-1229
-1214
-1219
-1217
-1214
-1214
-1212
-1226
-1238
-1248
-1249
-1249
-1264
-1270
-1276
-1280
-1280
-1293
-1299
-1299
-1284
-1270
-1272
-1259
-1246
-1230
-1216
-1206
-1192
-1172
-1140
-1115
-1100
-1074
-1051
-1027
-1008
-998
-986
-967
-940
-926
-920
-905
-892
-876
-867
-861
-849
-825
-791
-770
-746
-716
-684
-648
-616
-585
-550
-503
-448
-412
-364
-312
-261
-207
-167
-126
-82
-31
20
53
93
131
166
202
221
244
271
311
347
366
398
428
461
492
515
541
573
614
650
675
712
746
782
814
837
865
899
941
968
988
1014
1035
1057
1067
1071
1077
1088
1104
1104
1102
1104
1104
1105
1100
1092
1089
1098
1114
1109
1117
1128
1139
1154
1158
1164
1176
1198
1222
1231
1250
1268
1284
1300
1299
1301
1306
1320
1328
1318
1317
1310
1303
1293
1273
1256
1245
1243
1234
1216
1210
1204
1202
1197
1186
1181
1185
1201
1205
1207
1218
1228
1243
1247
1248
1251
1262
1277
1277
1274
1273
1269
1265
1249
1231
1213
1207
1204
1178
1165
1152
1140
1130
1112
1097
1086
1086
1088
1075
1075
1076
1079
1085
1077
1075
1079
1094
1105
1101
1106
1107
1107
1103
1088
1073
1061
1056
1040
1012
993
971
952
927
896
870
855
851
835
819
812
806
805
796
785
780
784
795
794
793
796
798
802
793
781
769
767
766
740
723
705
683
662
630
600
574
559
546
516
501
488
478
472
452
440
434
439
440
430
428
425
424
419
405
395
389
392
383
362
351
335
320
298
268
241
221
210
184
158
140
120
106
84
61
44
37
39
30
23
23
24
31
26
23
25
41
61
59
69
77
84
90
85
78
72
74
74
51
41
28
14
0
-26
-47
-61
-65
-71
-87
-92
-97
-99
-101
-110
-112
-107
-91
-84
-86
-76
-68
-58
-55
-59
-62
-59
-50
-58
-70
-77
-90
-101
-123
-149
-173
-188
-197
-217
-236
-250
-261
-267
-283
-296
-302
-293
-280
-286
-280
-274
-267
-257
-256
-252
-245
-227
-209
-214
-205
-200
-196
-194
-206
-215
-221
-220
-225
-242
-249
-259
-265
-275
-292
-302
-304
-294
-292
-297
-290
-283
-272
-266
-265
-259
-242
-217
-206
-196
-177
-161
-142
-132
-127
-119
-106
-87
-84
-80
-75
-72
-68
-79
-88
-94
-88
-79
-89
-88
-85
-82
-76
-79
-79
-75
-56
-36
-37
-19
-2
16
35
44
58
76
101
119
124
137
145
152
154
143
136
133
139
133
120
116
110
108
100
87
80
83
96
94
95
104
112
124
130
134
142
157
178
184
194
205
212
222
215
208
203
207
212
197
188
179
169
160
139
123
111
114
118
103
106
110
117
124
124
129
140
160
176
182
198
213
229
240
242
246
256
274
279
275
279
278
277
268
252
240
237
241
229
219
215
210
209
205
198
197
205
220
218
225
234
243
257
257
261
269
288
308
312
322
331
339
347
339
334
332
343
350
335
335
333
330
325
312
303
299
305
306
297
299
300
304
306
300
299
306
324
331
333
344
353
363
364
359
357
362
373
367
359
355
347
339
324
305
289
281
278
256
244
235
224
217
196
179
165
162
162
147
142
137
134
135
121
112
107
115
119
103
99
91
83
70
47
25
7
-3
-20
-48
-64
-82
-98
-116
-141
-160
-170
-168
-177
-189
-191
-193
-189
-193
-199
-198
-187
-167
-163
-160
-151
-145
-138
-140
-147
-152
-151
-147
-166
-177
-188
-201
-213
-237
-259
-277
-284
-288
-307
-315
-321
-325
-325
-339
-345
-345
-331
-318
-319
-308
-297
-285
-275
-274
-270
-263
-249
-244
-252
-250
-254
-259
-272
-294
-314
-327
-331
-348
-368
-379
-391
-399
-415
-433
-445
-445
-436
-438
-440
-434
-426
-414
-408
-402
-393
-372
-346
-344
-332
-320
-311
-301
-306
-312
-316
-313
-311
-327
-333
-340
-347
-352
-371
-384
-389
-380
-371
-375
-365
-355
-341
-327
-319
-306
-285
-253
-227
-211
-184
-160
-136
-118
-111
-102
-87
-67
-63
-65
-62
-64
-65
-77
-93
-106
-109
-106
-114
-121
-120
-119
-112
-113
-113
-109
-90
-66
-63
-45
-25
-6
16
28
40
54
74
94
92
101
105
107
108
91
79
70
71
68
52
45
37
32
26
14
8
10
23
29
27
38
48
61
70
72
80
96
119
128
133
143
148
155
149
137
126
122
122
107
91
78
64
54
33
13
-3
-3
3
-12
-13
-10
-6
3
4
8
16
35
57
59
76
91
105
119
117
118
122
134
139
131
129
123
118
108
89
73
64
66
60
45
44
42
45
45
39
40
51
71
78
84
98
111
127
135
141
150
166
186
191
195
200
201
204
191
178
165
164
163
142
130
119
108
99
81
67
58
61
67
54
58
63
70
78
74
76
84
102
116
119
131
139
149
153
148
145
146
154
150
135
128
116
106
89
65
45
35
36
22
11
8
4
6
1
-4
-3
6
23
29
38
51
63
78
79
81
84
97
112
104
102
98
91
82
62
42
24
17
11
-17
-28
-39
-48
-55
-71
-81
-84
-77
-72
-76
-69
-63
-54
-48
-49
-46
-36
-16
-9
-11
-5
-4
-3
-12
-29
-45
-54
-57
-78
-99
-115
-132
-145
-165
-187
-204
-211
-211
-221
-226
-225
-223
-214
-219
-219
-213
-193
-170
-163
-147
-131
-116
-101
-99
-96
-93
-79
-69
-83
-84
-88
-95
-104
-122
-138
-148
-149
-153
-165
-164
-164
-158
-155
-158
-156
-144
-122
-108
-100
-82
-66
-46
-34
-28
-19
-2
22
27
31
39
42
45
40
27
17
12
12
-5
-17
-26
-36
-41
-60
-74
-83
-80
-73
-81
-78
-75
-69
-61
-63
-61
-53
-31
-10
-10
4
16
27
35
34
33
36
44
45
33
29
21
14
3
-17
-32
-39
-35
-42
-52
-51
-51
-46
-48
-54
-55
-46
-29
-27
-23
-12
-1
12
18
17
17
20
25
6
-10
-32
-62
-95
-150
-208
-266
-316
-366
-432
-490
-545
-595
-637
-688
-727
-755
-764
-772
-797
-802
-806
-807
-806
-810
-809
-797
-772
-748
-732
-701
-668
-628
-589
-556
-515
-463
-396
-336
-276
-200
-118
-23
75
183
312
464
637
807
989
1188
1398
1623
1860
2114
2391
2700
3037
3374
3741
4126
4523
4934
5342
5760
6186
6620
7050
7451
7840
8204
8539
8843
9097
9320
9510
9678
9809
9889
9949
9976
9977
9951
9896
9822
9737
9646
9534
9398
9259
9103
8937
8755
8555
8351
8145
7938
7707
7459
7210
6951
6688
6411
6127
5845
5570
5301
5018
4733
4454
4175
3899
3617
3334
3057
2793
2538
2266
2011
1762
1519
1286
1049
821
606
408
219
23
-157
-330
-497
-654
-821
-977
-1122
-1250
-1376
-1512
-1632
-1747
-1855
-1960
-2067
-2164
-2249
-2319
-2389
-2464
-2522
-2577
-2624
-2671
-2721
-2762
-2791
-2807
-2832
-2856
-2868
-2880
-2887
-2900
-2916
-2926
-2926
-2919
-2926
-2933
-2935
-2940
-2942
-2954
-2967
-2979
-2978
-2973
-2989
-2992
-2995
-2997
-2996
-3003
-3008
-3008
-2998
-2984
-2986
-2975
-2965
-2952
-2934
-2930
-2918
-2901
-2871
-2843
-2828
-2803
-2780
-2756
-2735
-2723
-2710
-2692
-2667
-2651
-2647
-2633
-2622
-2610
-2603
-2603
-2598
-2584
-2560
-2548
-2538
-2517
-2497
-2472
-2454
-2439
-2418
-2387
-2348
-2320
-2292
-2260
-2229
-2196
-2174
-2153
-2132
-2100
-2066
-2056
-2037
-2019
-2005
-1990
-1987
-1982
-1975
-1959
-1942
-1944
-1933
-1922
-1910
-1897
-1898
-1892
-1879
-1854
-1832
-1821
-1799
-1776
-1751
-1728
-1712
-1691
-1665
-1629
-1602
-1586
-1560
-1538
-1516
-1501
-1496
-1488
-1474
-1453
-1448
-1447
-1439
-1435
-1427
-1429
-1432
-1432
-1422
-1405
-1398
-1391
-1377
-1362
-1342
-1332
-1319
-1301
-1269
-1232
-1216
-1189
-1162
-1137
-1112
-1098
-1085
-1071
-1050
-1031
-1034
-1026
-1021
-1017
-1014
-1025
-1033
-1035
-1027
-1023
-1029
-1026
-1024
-1019
-1015
-1017
-1013
-1000
-976
-958
-948
-926
-905
-881
-863
-854
-842
-823
-799
-791
-787
-778
-774
-769
-776
-788
-798
-803
-802
-814
-826
-833
-840
-843
-857
-868
-873
-864
-849
-854
-847
-837
-826
-811
-804
-794
-781
-756
-732
-730
-714
-702
-693
-685
-694
-701
-706
-705
-711
-730
-740
-752
-762
-775
-796
-812
-821
-817
-821
-832
-831
-829
-824
-822
-825
-821
-807
-782
-773
-762
-746
-732
-719
-715
-717
-719
-715
-709
-720
-732
-743
-758
-772
-801
-829
-853
-865
-874
-900
-913
-925
-935
-941
-955
-965
-969
-958
-946
-954
-943
-934
-923
-913
-913
-910
-902
-888
-879
-883
-880
-882
-885
-894
-914
-933
-946
-950
-963
-985
-995
-1006
-1014
-1026
-1042
-1050
-1047
-1032
-1031
-1027
-1014
-1001
-985
-975
-966
-953
-932
-905
-892
-876
-859
-845
-830
-832
-834
-835
-826
-818
-829
-833
-838
-844
-848
-864
-877
-885
-879
-871
-883
-877
-871
-863
-853
-851
-844
-832
-810
-792
-785
-767
-752
-736
-725
-725
-724
-718
-704
-704
-714
-716
-722
-727
-742
-762
-777
-781
-777
-788
-797
-798
-799
-796
-797
-801
-799
-788
-770
-767
-756
-743
-730
-711
-708
-701
-689
-667
-644
-638
-624
-611
-598
-584
-583
-579
-573
-553
-536
-539
-527
-515
-502
-489
-483
-471
-453
-426
-402
-388
-360
-333
-304
-276
-256
-229
-194
-148
-113
-83
-43
-5
35
66
92
120
156
197
220
240
264
284
306
320
331
345
367
395
405
424
445
466
491
503
518
538
570
603
622
649
678
707
738
755
774
794
826
854
860
877
890
901
908
904
900
898
905
904
891
889
885
883
877
864
856
857
868
869
866
874
881
892
898
900
908
925
948
956
962
972
978
984
981
973
965
964
967
948
936
925
912
901
877
855
838
832
829
813
807
802
799
799
786
779
778
792
804
800
810
818
828
834
831
830
832
841
841
828
823
814
805
789
764
743
730
725
708
687
677
665
659
645
629
618
617
626
622
619
623
628
637
639
640
643
657
674
668
671
672
670
668
653
637
622
613
604
576
558
537
517
499
467
443
424
420
413
394
386
379
374
369
357
349
348
359
362
355
358
358
359
353
337
322
313
311
293
270
252
230
211
181
149
121
103
93
72
54
43
35
32
22
14
11
21
37
32
41
52
64
78
82
87
94
109
123
117
122
122
120
118
99
84
73
72
68
51
44
37
33
29
19
14
17
32
40
41
54
66
81
91
94
102
117
141
149
153
162
166
171
164
151
140
135
134
120
103
91
78
68
48
30
16
17
23
8
6
7
10
15
13
13
17
32
48
46
57
66
74
82
74
68
65
70
67
50
40
25
11
-8
-35
-58
-73
-78
-90
-109
-116
-122
-125
-131
-142
-147
-142
-127
-124
-123
-113
-105
-92
-88
-87
-84
-74
-59
-57
-57
-55
-56
-56
-70
-85
-99
-101
-99
-118
-125
-130
-135
-136
-145
-149
-148
-134
-118
-120
-105
-90
-74
-56
-50
-38
-22
3
24
33
49
62
74
81
77
73
73
80
75
58
49
35
24
8
-15
-32
-38
-35
-45
-52
-50
-49
-42
-43
-45
-42
-31
-13
-6
3
16
28
45
46
49
52
67
83
77
79
79
77
73
58
44
33
33
34
15
14
12
13
17
11
10
17
33
46
50
63
75
89
101
104
112
126
149
162
164
175
181
189
188
180
174
176
185
177
168
166
162
160
151
141
135
138
148
145
146
152
157
168
166
167
174
194
217
222
236
250
262
275
274
273
274
285
293
276
273
265
255
244
222
205
192
188
179
161
154
146
142
137
123
116
117
130
134
132
141
150
161
166
165
169
180
197
197
196
200
199
198
188
171
156
147
143
123
108
96
84
77
57
41
31
34
41
33
35
38
43
50
47
48
53
71
89
85
95
101
105
106
96
87
80
79
72
51
39
24
10
-7
-32
-52
-62
-62
-70
-83
-83
-83
-77
-77
-80
-78
-65
-44
-38
-31
-16
-4
11
18
19
21
29
40
32
28
23
15
8
-14
-35
-51
-56
-58
-74
-82
-87
-90
-89
-100
-104
-103
-86
-70
-74
-62
-52
-41
-31
-30
-25
-18
-3
4
-2
1
-1
-4
-13
-33
-50
-62
-66
-82
-105
-119
-134
-146
-165
-187
-204
-209
-206
-216
-224
-226
-226
-223
-225
-229
-229
-218
-200
-201
-193
-183
-175
-165
-170
-175
-178
-174
-170
-184
-191
-201
-210
-217
-238
-253
-263
-259
-254
-265
-261
-256
-248
-239
-237
-232
-220
-199
-184
-179
-163
-149
-133
-122
-120
-115
-105
-87
-83
-87
-84
-86
-88
-99
-117
-131
-137
-136
-149
-161
-167
-173
-175
-183
-193
-198
-192
-181
-190
-188
-183
-180
-172
-175
-175
-170
-156
-140
-140
-131
-124
-119
-112
-122
-129
-132
-124
-121
-136
-141
-147
-152
-160
-175
-187
-192
-186
-186
-196
-192
-189
-182
-178
-181
-178
-166
-144
-133
-125
-108
-93
-76
-68
-64
-58
-44
-24
-20
-19
-14
-11
-7
-13
-21
-27
-21
-11
-22
-21
-19
-16
-10
-14
-15
-11
3
21
24
39
54
71
92
96
107
122
148
170
177
191
201
209
212
204
197
194
198
192
175
169
159
152
140
121
108
105
112
107
100
102
103
110
109
105
107
120
140
147
155
167
178
190
190
188
187
196
206
191
186
180
171
163
143
126
112
107
103
83
77
72
69
71
60
56
60
77
91
95
110
125
143
159
167
177
190
212
223
221
228
229
230
223
207
193
185
186
172
156
147
136
129
114
97
86
85
92
89
88
93
99
109
110
112
118
138
161
162
172
182
189
195
189
180
171
170
167
142
129
113
96
80
50
26
9
4
-2
-18
-22
-26
-26
-27
-33
-34
-27
-8
5
8
23
35
48
54
51
49
55
66
59
48
42
30
19
-4
-30
-52
-67
-74
-94
-112
-124
-134
-139
-155
-167
-173
-165
-151
-157
-150
-142
-134
-122
-119
-114
-105
-87
-69
-74
-64
-58
-55
-54
-67
-78
-87
-89
-96
-114
-124
-135
-144
-154
-171
-181
-182
-170
-164
-165
-153
-141
-125
-113
-107
-94
-72
-39
-22
-5
16
34
52
60
62
66
73
84
79
74
69
63
59
40
24
11
12
17
4
2
3
4
8
4
3
6
23
41
37
49
60
71
80
77
76
76
83
82
66
57
41
24
0
-38
-77
-113
-142
-186
-241
-290
-343
-396
-455
-520
-580
-629
-666
-714
-755
-785
-810
-825
-843
-860
-870
-871
-865
-871
-875
-876
-877
-871
-878
-879
-874
-852
-823
-808
-779
-744
-703
-655
-610
-552
-482
-391
-290
-201
-83
48
195
354
515
692
886
1099
1320
1542
1791
2055
2339
2641
2952
3286
3643
4024
4405
4787
5188
5595
6009
6418
6818
7213
7601
7975
8307
8609
8887
9130
9341
9513
9648
9754
9835
9891
9901
9889
9854
9796
9722
9614
9490
9353
9209
9051
8860
8663
8454
8236
8009
7759
7503
7242
6986
6724
6439
6168
5895
5623
5352
5074
4803
4539
4288
4034
3773
3525
3278
3035
2790
2540
2298
2068
1853
1632
1410
1203
1000
806
609
414
228
58
-98
-265
-425
-573
-716
-851
-983
-1112
-1230
-1332
-1421
-1521
-1606
-1682
-1753
-1814
-1884
-1947
-2001
-2040
-2074
-2119
-2152
-2183
-2210
-2233
-2269
-2300
-2325
-2338
-2352
-2386
-2406
-2428
-2449
-2472
-2503
-2529
-2550
-2560
-2574
-2598
-2608
-2619
-2624
-2632
-2646
-2654
-2652
-2640
-2638
-2639
-2631
-2623
-2611
-2607
-2606
-2600
-2585
-2564
-2558
-2554
-2545
-2539
-2531
-2531
-2536
-2540
-2536
-2528
-2541
-2545
-2547
-2551
-2551
-2563
-2572
-2575
-2567
-2555
-2557
-2548
-2538
-2527
-2511
-2509
-2499
-2485
-2456
-2428
-2416
-2392
-2369
-2346
-2326
-2316
-2303
-2286
-2262
-2247
-2245
-2233
-2226
-2218
-2216
-2222
-2224
-2219
-2205
-2201
-2201
-2190
-2181
-2167
-2162
-2159
-2151
-2132
-2105
-2091
-2077
-2055
-2034
-2010
-1992
-1976
-1957
-1928
-1895
-1886
-1866
-1846
-1830
-1813
-1811
-1808
-1804
-1791
-1777
-1780
-1772
-1764
-1755
-1742
-1742
-1736
-1724
-1697
-1673
-1663
-1639
-1616
-1590
-1566
-1547
-1525
-1497
-1459
-1428
-1410
-1381
-1356
-1332
-1314
-1306
-1297
-1282
-1261
-1256
-1258
-1254
-1253
-1251
-1259
-1270
-1277
-1273
-1262
-1261
-1260
-1251
-1241
-1228
-1221
-1215
-1204
-1180
-1150
-1141
-1121
-1099
-1078
-1055
-1044
-1034
-1022
-1003
-985
-986
-978
-975
-973
-971
-986
-996
-1002
-996
-993
-1003
-1002
-1001
-995
-990
-992
-987
-976
-953
-937
-930
-912
-895
-875
-859
-850
-837
-816
-787
-773
-765
-750
-741
-732
-734
-743
-750
-750
-746
-755
-765
-770
-776
-778
-789
-799
-805
-796
-781
-787
-781
-772
-761
-747
-741
-733
-721
-699
-675
-670
-652
-637
-624
-612
-617
-618
-618
-609
-607
-621
-627
-637
-647
-661
-684
-704
-718
-721
-732
-751
-756
-762
-764
-770
-781
-785
-780
-765
-762
-760
-749
-739
-725
-720
-718
-713
-701
-685
-682
-683
-682
-684
-685
-700
-716
-731
-734
-733
-754
-763
-770
-778
-782
-795
-805
-810
-803
-794
-803
-795
-787
-778
-767
-768
-763
-752
-732
-715
-711
-699
-691
-683
-680
-688
-695
-698
-692
-698
-714
-721
-730
-737
-749
-767
-779
-782
-773
-777
-779
-772
-764
-751
-744
-738
-727
-707
-680
-665
-648
-627
-607
-584
-576
-569
-560
-540
-519
-521
-515
-511
-509
-508
-518
-527
-533
-526
-517
-528
-521
-514
-505
-491
-489
-480
-465
-440
-419
-407
-386
-366
-345
-326
-316
-303
-285
-257
-242
-236
-221
-210
-198
-194
-199
-201
-195
-185
-190
-196
-195
-196
-194
-198
-204
-204
-196
-181
-176
-168
-155
-141
-121
-113
-100
-83
-51
-16
1
27
52
75
98
108
118
129
150
170
165
175
182
188
193
189
188
194
209
221
225
241
258
279
299
313
333
362
402
433
457
492
525
560
587
606
628
657
691
707
719
735
746
755
755
749
745
747
754
745
741
741
740
745
736
731
731
744
760
759
768
778
789
802
805
811
821
844
864
861
873
879
884
885
875
865
858
857
849
829
818
805
793
779
758
742
734
738
734
724
725
725
729
727
721
719
729
746
749
752
762
768
776
776
769
763
761
763
745
731
716
698
681
648
617
590
574
561
532
513
496
481
469
446
428
416
418
420
402
399
395
393
389
378
370
368
373
371
356
351
341
330
315
288
264
244
233
211
183
166
147
133
112
89
73
69
74
66
60
62
64
70
71
70
73
86
105
106
114
123
130
139
131
124
119
121
123
106
96
84
71
60
36
17
3
4
5
-10
-10
-8
-4
-1
-3
0
10
29
42
45
59
70
82
90
87
87
92
104
103
93
90
82
77
61
40
24
17
18
4
-8
-14
-20
-21
-27
-35
-38
-30
-16
-21
-15
-7
1
13
13
16
23
40
58
60
70
79
86
94
85
80
78
88
93
79
76
71
67
62
49
41
38
46
47
39
43
46
52
53
48
47
56
76
85
90
105
118
134
139
139
141
152
166
165
162
162
159
157
148
136
126
128
134
121
119
120
121
126
121
119
122
135
151
152
165
178
193
211
214
223
236
260
281
285
298
308
317
321
315
310
306
310
305
288
281
270
260
246
225
210
203
207
198
186
182
178
178
170
160
155
160
172
172
171
174
176
179
172
162
152
154
157
136
126
115
103
92
71
52
37
33
31
12
7
2
-2
-2
-14
-20
-17
-2
11
13
27
40
55
68
71
78
88
107
115
111
115
115
115
107
90
76
69
70
57
41
34
26
23
12
1
-6
-2
9
11
14
25
37
54
62
72
86
113
143
151
169
186
201
215
216
216
217
224
229
212
208
200
192
184
162
146
136
137
136
124
123
121
123
124
118
118
125
144
156
158
171
181
193
196
191
188
190
198
188
173
162
146
130
104
74
48
30
19
-2
-23
-36
-48
-55
-72
-85
-91
-82
-68
-73
-64
-54
-41
-26
-20
-12
-2
17
34
29
36
40
40
38
21
5
-8
-14
-24
-46
-58
-73
-84
-96
-115
-128
-133
-125
-123
-129
-122
-116
-107
-103
-104
-99
-85
-62
-54
-47
-35
-27
-20
-25
-35
-44
-49
-50
-66
-83
-98
-114
-126
-152
-176
-194
-199
-199
-217
-222
-225
-225
-222
-227
-227
-222
-204
-184
-184
-167
-151
-135
-119
-115
-109
-100
-85
-76
-81
-80
-85
-90
-100
-121
-140
-152
-154
-165
-184
-192
-200
-204
-212
-225
-231
-226
-210
-208
-204
-191
-179
-162
-151
-142
-129
-110
-86
-76
-65
-53
-45
-35
-42
-49
-55
-52
-48
-64
-71
-79
-86
-93
-109
-121
-128
-120
-110
-121
-113
-105
-95
-84
-81
-74
-60
-37
-19
-10
7
21
35
43
40
38
41
50
46
32
25
15
6
-9
-30
-45
-49
-42
-49
-52
-47
-41
-32
-28
-25
-19
-4
17
23
33
46
58
72
71
71
74
87
99
94
95
95
94
92
74
56
38
28
14
-27
-56
-92
-132
-175
-227
-277
-322
-357
-396
-442
-475
-504
-525
-544
-566
-578
-578
-564
-558
-558
-548
-539
-526
-520
-517
-507
-486
-453
-431
-403
-363
-319
-266
-213
-158
-94
-15
79
166
273
394
528
679
828
992
1171
1369
1580
1787
2018
2264
2530
2817
3111
3429
3768
4137
4519
4891
5287
5691
6101
6512
6914
7313
7707
8095
8458
8786
9095
9369
9608
9805
9956
10076
10169
10236
10258
10243
10209
10147
10066
9958
9831
9695
9554
9405
9224
9029
8828
8615
8393
8153
7899
7637
7374
7107
6816
6530
6243
5955
5671
5375
5086
4804
4535
4271
3993
3728
3465
3208
2957
2697
2448
2208
1990
1776
1550
1346
1145
951
760
566
381
205
43
-122
-293
-447
-600
-745
-890
-1038
-1177
-1302
-1411
-1524
-1635
-1730
-1820
-1902
-1987
-2069
-2143
-2200
-2245
-2300
-2350
-2390
-2426
-2456
-2490
-2524
-2553
-2570
-2581
-2613
-2634
-2653
-2673
-2690
-2720
-2748
-2772
-2785
-2795
-2820
-2835
-2849
-2861
-2869
-2889
-2903
-2909
-2899
-2890
-2894
-2884
-2873
-2859
-2845
-2836
-2822
-2801
-2770
-2744
-2731
-2708
-2689
-2670
-2658
-2656
-2652
-2643
-2626
-2623
-2625
-2619
-2616
-2610
-2613
-2617
-2617
-2605
-2586
-2577
-2568
-2550
-2530
-2507
-2490
-2473
-2453
-2420
-2381
-2364
-2336
-2307
-2280
-2253
-2239
-2225
-2210
-2189
-2168
-2167
-2157
-2150
-2145
-2138
-2148
-2153
-2152
-2139
-2128
-2130
-2121
-2111
-2097
-2083
-2075
-2062
-2042
-2010
-1985
-1971
-1945
-1922
-1896
-1876
-1864
-1847
-1823
-1792
-1777
-1766
-1750
-1737
-1724
-1723
-1727
-1728
-1722
-1710
-1712
-1714
-1711
-1708
-1702
-1705
-1707
-1705
-1689
-1667
-1667
-1653
-1637
-1620
-1601
-1591
-1578
-1560
-1533
-1504
-1493
-1470
-1449
-1428
-1408
-1404
-1396
-1386
-1366
-1353
-1354
-1347
-1343
-1339
-1338
-1345
-1349
-1348
-1336
-1333
-1338
-1331
-1325
-1317
-1312
-1313
-1307
-1291
-1265
-1252
-1240
-1220
-1202
-1180
-1169
-1163
-1154
-1140
-1122
-1118
-1117
-1113
-1114
-1114
-1128
-1143
-1157
-1158
-1156
-1176
-1183
-1188
-1193
-1194
-1203
-1210
-1211
-1199
-1185
-1188
-1176
-1163
-1149
-1131
-1126
-1114
-1096
-1068
-1045
-1033
-1013
-997
-980
-968
-966
-963
-956
-940
-934
-939
-933
-930
-923
-921
-926
-924
-913
-891
-882
-874
-857
-840
-819
-805
-793
-775
-749
-716
-695
-674
-650
-627
-603
-594
-588
-581
-564
-547
-553
-552
-552
-556
-560
-575
-589
-600
-599
-597
-615
-615
-614
-611
-604
-608
-605
-595
-575
-558
-550
-533
-516
-497
-482
-476
-467
-452
-430
-418
-418
-409
-405
-400
-404
-416
-426
-428
-422
-433
-442
-444
-447
-445
-450
-456
-457
-450
-435
-431
-425
-415
-404
-388
-385
-380
-370
-347
-321
-314
-299
-287
-277
-267
-270
-273
-276
-269
-266
-286
-291
-301
-310
-320
-340
-356
-366
-366
-369
-379
-379
-378
-373
-370
-374
-372
-362
-339
-325
-317
-297
-278
-258
-245
-239
-231
-216
-194
-190
-188
-182
-181
-179
-186
-199
-209
-212
-209
-221
-228
-232
-235
-232
-242
-246
-245
-230
-211
-207
-193
-176
-158
-138
-127
-113
-96
-66
-37
-31
-10
8
24
37
38
39
43
54
59
53
57
59
64
66
60
60
68
88
100
106
124
142
165
182
196
215
245
284
308
334
365
394
425
448
465
484
508
536
544
555
566
574
585
580
577
577
588
602
600
606
614
624
638
640
648
661
689
717
724
747
768
790
810
822
834
850
871
883
882
888
888
888
880
861
843
829
825
809
786
773
757
744
724
700
682
675
678
666
656
654
652
653
649
642
639
646
658
651
650
650
647
645
625
605
588
577
566
537
514
491
468
448
414
385
361
352
342
315
305
295
288
282
269
261
259
267
269
261
264
264
266
262
249
239
234
237
226
209
198
183
171
148
121
97
83
77
57
39
28
17
10
-2
-15
-24
-22
-13
-23
-21
-18
-15
-7
-12
-14
-12
0
13
10
14
16
18
21
7
-4
-12
-8
-8
-26
-33
-42
-49
-58
-75
-86
-92
-87
-89
-100
-99
-100
-97
-98
-106
-109
-102
-84
-77
-74
-62
-52
-40
-39
-43
-44
-38
-26
-31
-39
-43
-50
-56
-69
-85
-98
-100
-97
-114
-118
-119
-119
-116
-124
-128
-128
-116
-101
-99
-87
-73
-57
-37
-33
-25
-12
11
29
30
41
47
52
52
42
32
26
28
23
6
1
-7
-13
-21
-35
-43
-42
-30
-29
-30
-21
-12
1
6
8
16
33
57
69
78
91
101
113
114
111
109
117
127
113
108
103
96
92
77
64
55
56
62
51
53
57
62
72
69
73
84
108
131
142
165
187
211
233
245
260
278
304
320
322
333
340
345
342
329
319
317
323
315
305
304
302
304
297
289
286
293
307
310
313
321
329
341
343
346
351
368
388
384
389
393
394
395
382
368
355
350
344
319
308
294
281
270
244
226
215
215
214
202
203
204
208
212
208
210
220
240
254
257
271
282
293
296
289
284
283
289
278
262
252
237
223
200
174
152
139
133
118
104
98
94
95
86
80
78
90
107
104
113
124
135
149
153
157
162
176
189
178
180
176
169
161
137
116
99
92
80
58
46
34
25
15
-3
-14
-18
-10
-9
-16
-10
-6
2
5
4
7
20
40
44
46
52
53
54
45
31
18
10
7
-11
-29
-43
-58
-69
-93
-114
-130
-132
-128
-143
-146
-146
-144
-138
-140
-139
-133
-115
-95
-96
-80
-66
-54
-42
-44
-43
-38
-27
-23
-33
-35
-42
-49
-62
-84
-102
-114
-116
-126
-143
-149
-154
-155
-161
-170
-174
-167
-150
-148
-143
-130
-119
-104
-97
-92
-85
-72
-54
-51
-49
-44
-43
-40
-54
-69
-81
-82
-82
-101
-110
-118
-125
-129
-143
-152
-158
-149
-138
-148
-140
-132
-123
-113
-111
-105
-93
-73
-57
-51
-37
-25
-14
-7
-11
-13
-9
3
2
-8
-10
-17
-22
-34
-52
-65
-68
-63
-72
-79
-79
-80
-78
-82
-88
-90
-86
-75
-79
-79
-77
-75
-71
-83
-94
-103
-103
-103
-121
-131
-144
-157
-172
-201
-231
-261
-282
-307
-358
-396
-439
-482
-528
-583
-633
-676
-707
-738
-775
-795
-811
-818
-823
-832
-834
-826
-806
-795
-791
-775
-759
-739
-723
-710
-690
-654
-607
-572
-531
-480
-424
-360
-293
-222
-140
-42
71
178
304
446
600
770
937
1119
1315
1532
1760
1984
2231
2494
2774
3074
3376
3698
4036
4398
4766
5121
5500
5885
6274
6661
7030
7387
7728
8054
8349
8602
8834
9032
9200
9332
9424
9486
9523
9538
9515
9463
9400
9318
9225
9113
8985
8852
8717
8579
8415
8242
8066
7878
7683
7473
7250
7021
6791
6559
6303
6052
5800
5544
5292
5024
4760
4500
4252
4008
3753
3510
3270
3035
2805
2563
2331
2107
1901
1698
1483
1286
1093
905
720
533
352
182
25
-135
-299
-448
-593
-730
-864
-1000
-1125
-1236
-1330
-1429
-1525
-1606
-1683
-1749
-1819
-1887
-1947
-1992
-2025
-2069
-2110
-2142
-2172
-2198
-2229
-2262
-2291
-2309
-2321
-2354
-2377
-2398
-2420
-2439
-2472
-2502
-2526
-2539
-2549
-2573
-2586
-2597
-2606
-2609
-2626
-2636
-2639
-2626
-2615
-2619
-2609
-2600
-2589
-2579
-2575
-2567
-2553
-2530
-2514
-2510
-2495
-2485
-2474
-2470
-2477
-2481
-2479
-2469
-2473
-2482
-2482
-2484
-2482
-2489
-2498
-2501
-2493
-2477
-2473
-2469
-2458
-2446
-2430
-2420
-2411
-2399
-2374
-2342
-2331
-2308
-2284
-2261
-2236
-2224
-2210
-2195
-2172
-2148
-2144
-2131
-2120
-2111
-2102
-2108
-2109
-2105
-2089
-2075
-2074
-2062
-2050
-2035
-2021
-2013
-2001
-1983
-1953
-1929
-1914
-1886
-1860
-1832
-1808
-1791
-1771
-1744
-1709
-1688
-1674
-1653
-1638
-1622
-1618
-1619
-1619
-1612
-1601
-1602
-1605
-1604
-1603
-1600
-1604
-1607
-1607
-1592
-1572
-1573
-1561
-1546
-1530
-1511
-1500
-1486
-1467
-1436
-1403
-1388
-1360
-1335
-1311
-1287
-1279
-1267
-1252
-1228
-1210
-1207
-1195
-1187
-1179
-1174
-1177
-1177
-1172
-1156
-1148
-1149
-1139
-1130
-1118
-1109
-1107
-1099
-1082
-1054
-1040
-1027
-1007
-988
-966
-955
-950
-942
-927
-909
-905
-905
-902
-903
-902
-915
-929
-941
-941
-938
-956
-963
-968
-973
-975
-985
-993
-996
-987
-976
-982
-972
-961
-949
-933
-929
-919
-903
-876
-854
-845
-829
-815
-802
-793
-797
-800
-799
-792
-795
-810
-815
-824
-829
-841
-858
-869
-871
-862
-867
-871
-866
-860
-850
-846
-844
-836
-819
-795
-782
-768
-749
-731
-712
-708
-705
-702
-688
-675
-686
-689
-693
-701
-710
-729
-746
-761
-764
-765
-785
-788
-790
-790
-786
-793
-791
-781
-760
-741
-731
-711
-691
-669
-649
-638
-625
-607
-582
-568
-566
-557
-553
-549
-555
-568
-581
-586
-584
-598
-613
-621
-631
-637
-649
-663
-670
-669
-658
-658
-654
-645
-635
-619
-615
-608
-597
-571
-542
-533
-515
-498
-484
-470
-469
-468
-468
-458
-451
-468
-470
-476
-482
-488
-507
-522
-529
-527
-529
-539
-539
-539
-535
-531
-534
-530
-519
-495
-478
-469
-448
-429
-407
-393
-386
-377
-361
-339
-336
-337
-334
-337
-339
-351
-367
-381
-388
-389
-402
-412
-418
-422
-421
-432
-438
-438
-423
-403
-399
-383
-366
-346
-323
-311
-295
-277
-247
-219
-215
-197
-183
-171
-162
-166
-169
-168
-161
-160
-169
-167
-168
-165
-164
-170
-168
-158
-135
-119
-109
-86
-63
-36
-14
4
28
62
105
132
160
193
223
253
274
290
307
328
352
359
369
379
387
397
393
391
394
408
426
429
441
456
472
491
499
512
529
560
591
600
625
648
670
691
700
710
723
740
750
745
747
743
738
728
707
689
676
673
658
638
627
614
606
591
572
557
554
559
549
541
540
538
539
534
525
521
525
535
526
523
520
515
511
491
472
455
447
440
415
396
378
360
345
318
296
279
279
279
261
260
259
261
262
258
258
266
284
297
301
316
330
345
356
356
358
367
383
386
381
384
382
382
373
358
348
347
354
345
337
336
335
337
333
326
323
329
341
334
336
342
347
356
353
353
356
369
382
379
383
385
386
386
370
357
346
347
345
323
314
303
294
282
265
253
247
252
252
243
247
250
256
259
255
256
266
287
297
303
319
331
346
351
350
352
360
374
370
363
360
354
348
334
316
302
298
300
281
275
271
268
270
260
254
254
264
277
277
288
299
313
329
330
336
346
367
383
380
386
387
386
379
362
345
333
329
316
293
281
267
256
242
222
207
202
208
203
196
199
202
209
210
208
211
225
247
255
261
271
278
284
280
272
264
264
266
244
232
221
207
195
172
151
135
129
127
110
105
103
104
109
101
101
106
125
142
145
160
172
186
197
197
198
203
216
219
208
206
198
190
175
151
129
115
110
90
69
58
45
38
23
5
-9
-14
-14
-28
-47
-64
-86
-107
-141
-177
-213
-239
-262
-309
-344
-376
-408
-437
-473
-505
-532
-547
-559
-586
-595
-603
-606
-603
-610
-604
-585
-550
-511
-478
-427
-368
-296
-215
-131
-30
90
231
377
526
699
882
1081
1289
1507
1744
2006
2292
2578
2878
3200
3537
3894
4260
4640
5040
5460
5898
6334
6778
7233
7687
8142
8578
9002
9410
9807
10182
10506
10811
11083
11319
11519
11671
11787
11868
11921
11939
11903
11848
11761
11645
11502
11322
11127
10921
10711
10482
10228
9970
9698
9418
9126
8816
8501
8184
7868
7537
7191
6851
6503
6154
5796
5431
5072
4723
4386
4036
3687
3347
3007
2674
2337
2003
1679
1370
1075
776
486
210
-56
-307
-560
-799
-1022
-1219
-1400
-1589
-1754
-1906
-2047
-2176
-2303
-2418
-2520
-2601
-2674
-2760
-2824
-2883
-2938
-2990
-3051
-3106
-3155
-3194
-3236
-3290
-3335
-3381
-3426
-3474
-3528
-3577
-3616
-3642
-3674
-3710
-3732
-3750
-3761
-3774
-3788
-3794
-3788
-3769
-3763
-3754
-3735
-3715
-3690
-3672
-3656
-3635
-3608
-3576
-3559
-3541
-3523
-3507
-3489
-3488
-3485
-3480
-3464
-3444
-3442
-3431
-3417
-3402
-3383
-3372
-3355
-3332
-3295
-3257
-3239
-3202
-3166
-3129
-3090
-3061
-3027
-2989
-2941
-2899
-2869
-2832
-2800
-2769
-2744
-2732
-2718
-2700
-2676
-2664
-2661
-2651
-2643
-2633
-2629
-2630
-2626
-2609
-2583
-2569
-2552
-2526
-2499
-2468
-2443
-2419
-2391
-2356
-2314
-2286
-2255
-2220
-2187
-2151
-2132
-2112
-2090
-2059
-2028
-2017
-2001
-1986
-1972
-1959
-1959
-1956
-1951
-1932
-1914
-1917
-1903
-1889
-1874
-1858
-1850
-1838
-1820
-1793
-1771
-1758
-1735
-1715
-1692
-1674
-1663
-1648
-1626
-1596
-1578
-1568
-1550
-1536
-1522
-1518
-1521
-1522
-1516
-1504
-1508
-1512
-1510
-1508
-1504
-1506
-1510
-1509
-1501
-1484
-1483
-1474
-1463
-1452
-1436
-1435
-1430
-1421
-1400
-1376
-1369
-1354
-1340
-1326
-1311
-1309
-1306
-1300
-1283
-1269
-1278
-1273
-1271
-1271
-1273
-1284
-1292
-1295
-1290
-1290
-1300
-1299
-1299
-1295
-1293
-1298
-1298
-1290
-1270
-1260
-1256
-1241
-1227
-1209
-1198
-1192
-1182
-1164
-1139
-1131
-1124
-1114
-1109
-1103
-1107
-1115
-1123
-1124
-1120
-1134
-1141
-1146
-1153
-1155
-1171
-1184
-1191
-1187
-1179
-1184
-1180
-1174
-1167
-1157
-1159
-1155
-1146
-1123
-1101
-1099
-1084
-1071
-1060
-1051
-1052
-1052
-1049
-1040
-1038
-1050
-1053
-1058
-1062
-1070
-1088
-1101
-1105
-1100
-1106
-1116
-1116
-1115
-1111
-1114
-1119
-1119
-1107
-1086
-1079
-1071
-1055
-1040
-1024
-1015
-1010
-1003
-988
-970
-974
-970
-966
-966
-965
-980
-993
-1003
-1003
-1003
-1018
-1024
-1029
-1031
-1028
-1040
-1045
-1043
-1026
-1010
-1009
-994
-979
-962
-947
-938
-927
-911
-887
-871
-868
-856
-848
-840
-840
-850
-859
-862
-857
-867
-882
-888
-897
-902
-915
-931
-941
-940
-929
-931
-931
-923
-914
-901
-893
-886
-874
-850
-820
-811
-790
-769
-750
-730
-724
-718
-711
-698
-686
-693
-693
-695
-699
-701
-719
-732
-739
-734
-729
-739
-735
-731
-724
-716
-714
-707
-693
-669
-650
-640
-617
-595
-570
-550
-538
-522
-500
-471
-457
-449
-435
-424
-412
-411
-414
-413
-405
-389
-385
-381
-371
-361
-347
-339
-331
-317
-290
-255
-240
-212
-181
-150
-116
-91
-63
-30
12
56
81
117
149
180
212
225
243
265
296
323
335
356
375
395
414
426
443
468
504
535
556
590
623
660
693
719
751
791
841
878
911
952
989
1027
1053
1074
1096
1123
1154
1169
1180
1193
1202
1212
1210
1206
1205
1216
1230
1222
1226
1232
1239
1248
1247
1249
1254
1270
1286
1284
1295
1305
1315
1327
1325
1328
1335
1351
1360
1356
1358
1355
1350
1341
1320
1302
1287
1279
1262
1235
1219
1200
1184
1164
1137
1117
1107
1107
1095
1082
1077
1072
1070
1060
1049
1042
1044
1053
1050
1046
1046
1044
1043
1028
1012
997
992
989
962
946
927
907
888
860
833
809
796
785
756
743
729
718
710
690
677
670
675
677
668
670
670
673
673
662
654
651
655
649
631
621
607
592
570
539
511
492
481
454
427
408
387
371
347
323
304
294
292
279
268
264
260
260
248
237
231
238
247
236
232
227
220
212
192
171
152
142
132
98
80
60
40
21
-8
-33
-50
-56
-64
-80
-84
-88
-88
-88
-94
-95
-88
-70
-59
-56
-41
-28
-14
-7
-7
-5
5
21
20
17
18
15
12
0
-15
-26
-29
-26
-35
-40
-40
-40
-34
-42
-46
-45
-31
-14
-15
-6
3
14
25
26
29
33
47
58
45
46
42
36
28
7
-11
-26
-32
-44
-65
-75
-86
-93
-103
-121
-132
-135
-126
-126
-133
-129
-125
-117
-116
-119
-117
-105
-84
-78
-73
-63
-58
-51
-54
-61
-67
-68
-64
-78
-89
-99
-111
-119
-141
-160
-174
-175
-172
-183
-184
-183
-179
-171
-172
-168
-159
-136
-112
-108
-88
-69
-49
-31
-23
-13
0
20
32
30
35
35
35
28
10
-5
-14
-13
-23
-40
-47
-54
-57
-66
-78
-84
-79
-64
-64
-62
-52
-42
-29
-20
-14
-4
14
37
42
51
61
68
77
68
59
52
53
54
36
25
14
3
-6
-27
-43
-55
-50
-45
-59
-56
-53
-47
-41
-40
-36
-25
-4
11
16
33
46
60
68
65
65
69
80
76
64
59
50
43
26
5
-12
-20
-18
-31
-42
-43
-44
-41
-42
-45
-44
-33
-15
-14
-4
10
24
41
44
49
57
73
89
87
91
92
91
90
73
60
49
50
49
30
24
16
10
4
-8
-16
-16
-7
-3
-8
-1
6
16
22
22
28
42
66
78
85
99
109
121
122
117
114
119
129
122
112
105
96
88
74
57
43
39
41
24
19
17
16
20
14
13
17
32
51
56
71
87
104
124
128
134
144
164
178
173
177
175
172
164
147
130
119
116
107
87
79
69
62
54
39
30
31
42
43
42
50
58
71
76
78
84
99
121
128
132
141
146
151
146
135
125
124
125
101
89
78
66
58
39
24
14
16
21
11
13
16
21
31
26
29
38
61
81
86
102
115
128
136
133
132
134
143
141
127
121
111
100
82
57
36
24
23
10
-4
-8
-12
-10
-14
-19
-18
-5
17
27
39
57
76
97
110
121
132
154
177
175
182
187
188
188
176
161
148
143
137
112
100
86
74
65
42
27
18
22
24
16
19
23
30
35
34
37
47
67
78
78
87
91
94
90
76
63
55
53
36
14
-1
-19
-33
-56
-79
-97
-104
-101
-108
-113
-112
-108
-99
-99
-96
-89
-69
-44
-41
-26
-11
3
16
18
18
19
28
35
20
17
9
1
-7
-31
-49
-63
-65
-71
-87
-93
-98
-99
-100
-109
-111
-105
-88
-79
-78
-66
-57
-45
-40
-40
-37
-25
-7
-4
-5
0
1
3
-6
-19
-29
-33
-32
-43
-55
-63
-71
-74
-89
-101
-108
-101
-90
-99
-96
-92
-87
-79
-80
-79
-73
-56
-37
-39
-25
-13
-2
9
5
4
7
18
22
15
15
12
9
3
-11
-22
-26
-20
-24
-35
-35
-36
-34
-37
-46
-50
-43
-27
-25
-23
-12
-3
10
15
16
20
30
45
47
47
49
47
48
32
17
3
2
3
-15
-24
-32
-38
-42
-54
-63
-67
-57
-46
-54
-45
-36
-27
-15
-13
-6
8
30
46
52
65
74
84
89
82
78
78
85
81
67
62
54
48
36
18
6
5
13
8
5
10
15
24
26
26
31
44
65
74
86
103
118
137
140
145
151
167
182
177
179
178
175
170
153
138
126
126
126
104
100
96
94
94
86
82
85
98
107
107
118
129
142
153
156
164
179
202
213
215
225
231
238
235
224
214
212
215
201
186
176
164
155
139
120
107
103
106
95
90
90
91
98
91
88
89
104
121
122
131
139
147
155
149
144
141
150
156
138
135
128
120
112
94
80
72
72
69
57
57
56
59
60
54
54
63
83
93
99
115
130
147
156
159
165
179
199
200
200
203
202
201
191
176
163
157
157
139
129
122
114
112
96
85
78
84
92
86
89
93
99
108
105
106
111
130
146
141
150
154
157
156
144
133
125
123
113
90
78
63
51
34
10
-8
-17
-14
-21
-32
-31
-31
-26
-28
-34
-34
-24
-6
-1
4
15
24
34
37
34
33
39
48
34
28
21
11
3
-19
-38
-54
-59
-62
-80
-88
-93
-96
-93
-103
-106
-103
-85
-67
-66
-51
-36
-19
-5
3
12
25
45
56
52
57
56
53
43
22
3
-10
-15
-32
-56
-71
-90
-108
-137
-172
-206
-233
-257
-298
-340
-379
-419
-458
-503
-548
-588
-614
-630
-662
-680
-694
-707
-717
-738
-756
-769
-774
-778
-797
-803
-807
-806
-798
-799
-789
-768
-727
-681
-644
-588
-525
-451
-372
-290
-195
-84
49
190
336
508
690
886
1086
1287
1502
1735
1990
2248
2519
2817
3132
3468
3811
4165
4536
4927
5336
5740
6151
6568
6982
7391
7776
8140
8482
8808
9105
9345
9560
9743
9891
10009
10083
10127
10144
10142
10115
10047
9968
9868
9752
9620
9454
9275
9084
8891
8684
8452
8222
7982
7736
7480
7208
6935
6666
6407
6143
5871
5613
5356
5105
4850
4588
4332
4086
3849
3601
3349
3106
2862
2621
2371
2119
1875
1642
1419
1188
960
742
530
325
118
-82
-270
-438
-593
-760
-906
-1041
-1168
-1284
-1401
-1509
-1606
-1685
-1757
-1841
-1905
-1966
-2022
-2071
-2132
-2183
-2228
-2262
-2298
-2346
-2385
-2426
-2464
-2505
-2555
-2600
-2639
-2667
-2701
-2743
-2771
-2798
-2821
-2845
-2872
-2891
-2898
-2894
-2901
-2907
-2904
-2900
-2891
-2891
-2893
-2889
-2877
-2857
-2850
-2845
-2837
-2830
-2822
-2825
-2830
-2832
-2822
-2809
-2819
-2818
-2817
-2815
-2811
-2815
-2816
-2812
-2796
-2777
-2776
-2759
-2743
-2724
-2702
-2692
-2676
-2654
-2621
-2591
-2571
-2542
-2515
-2485
-2458
-2441
-2423
-2399
-2367
-2347
-2337
-2319
-2305
-2291
-2284
-2286
-2284
-2274
-2255
-2252
-2249
-2239
-2229
-2215
-2210
-2206
-2198
-2181
-2157
-2144
-2130
-2111
-2092
-2067
-2054
-2039
-2020
-1987
-1952
-1938
-1915
-1892
-1871
-1851
-1842
-1835
-1826
-1809
-1792
-1799
-1791
-1784
-1778
-1771
-1776
-1776
-1770
-1753
-1740
-1736
-1721
-1706
-1689
-1673
-1664
-1650
-1628
-1595
-1570
-1552
-1523
-1496
-1468
-1447
-1434
-1418
-1396
-1367
-1356
-1348
-1336
-1329
-1321
-1322
-1327
-1329
-1324
-1313
-1314
-1312
-1305
-1298
-1286
-1287
-1284
-1277
-1255
-1229
-1221
-1202
-1181
-1159
-1134
-1119
-1103
-1085
-1056
-1029
-1027
-1009
-997
-987
-979
-985
-989
-991
-985
-984
-994
-994
-998
-1000
-1004
-1016
-1022
-1020
-1005
-998
-998
-986
-974
-959
-949
-945
-934
-912
-882
-868
-854
-835
-820
-803
-795
-793
-789
-781
-770
-775
-779
-781
-785
-786
-803
-817
-827
-824
-818
-829
-829
-828
-825
-818
-821
-819
-811
-790
-767
-765
-746
-727
-708
-690
-683
-674
-661
-642
-630
-632
-626
-626
-628
-637
-657
-675
-687
-691
-705
-726
-737
-749
-758
-773
-792
-806
-808
-801
-807
-811
-807
-804
-798
-796
-797
-795
-785
-769
-772
-771
-769
-770
-771
-789
-807
-824
-832
-839
-865
-883
-902
-920
-936
-964
-987
-1004
-1005
-1006
-1026
-1028
-1029
-1028
-1025
-1029
-1029
-1021
-1003
-989
-984
-969
-957
-944
-936
-939
-940
-936
-926
-930
-942
-947
-956
-964
-981
-1002
-1019
-1025
-1023
-1037
-1047
-1050
-1053
-1052
-1054
-1058
-1056
-1045
-1026
-1024
-1013
-1000
-986
-968
-966
-962
-956
-941
-927
-931
-931
-933
-937
-941
-961
-977
-991
-991
-994
-1015
-1022
-1028
-1032
-1034
-1041
-1044
-1038
-1022
-1011
-1009
-993
-979
-961
-947
-941
-928
-908
-879
-862
-851
-833
-819
-804
-799
-800
-800
-792
-778
-781
-785
-784
-784
-783
-786
-791
-792
-782
-764
-763
-750
-733
-715
-691
-678
-660
-636
-601
-563
-539
-505
-470
-434
-397
-376
-351
-324
-286
-253
-239
-215
-194
-173
-156
-147
-135
-118
-91
-70
-59
-34
-10
20
48
71
101
141
193
234
272
319
366
416
458
496
537
585
638
673
705
739
768
797
815
827
839
859
881
882
893
905
915
928
930
934
944
963
986
993
1011
1030
1051
1074
1081
1094
1113
1143
1170
1179
1198
1213
1227
1236
1235
1234
1236
1244
1242
1227
1221
1210
1199
1183
1159
1139
1128
1128
1115
1101
1096
1090
1089
1080
1069
1064
1070
1083
1084
1084
1091
1098
1107
1107
1104
1102
1110
1121
1106
1102
1097
1089
1082
1064
1045
1030
1025
1021
1000
993
987
983
983
970
964
966
981
994
994
1005
1014
1026
1036
1038
1044
1056
1077
1089
1089
1099
1104
1108
1103
1088
1075
1068
1067
1050
1030
1017
1003
992
972
950
934
928
931
923
914
911
908
909
901
893
889
897
909
898
900
902
903
904
894
883
873
871
868
843
830
813
796
778
746
718
697
687
673
648
634
620
609
597
577
563
557
563
563
554
557
559
564
563
554
550
554
564
557
546
541
530
519
497
468
442
423
408
382
355
333
312
296
270
246
229
227
231
215
213
214
216
221
218
216
218
232
246
239
246
250
252
252
237
224
215
212
203
182
168
150
135
117
91
70
57
56
47
31
29
26
27
24
17
15
24
42
46
50
62
70
81
82
79
78
82
89
83
73
66
55
47
22
-3
-25
-34
-40
-65
-78
-89
-97
-102
-115
-125
-130
-121
-111
-122
-115
-108
-100
-91
-93
-90
-82
-65
-53
-53
-45
-41
-37
-38
-50
-61
-68
-66
-75
-94
-104
-115
-123
-137
-157
-171
-173
-165
-170
-173
-168
-163
-154
-150
-149
-142
-127
-106
-98
-87
-74
-62
-48
-51
-54
-55
-47
-38
-49
-54
-61
-69
-78
-97
-114
-128
-128
-127
-147
-149
-152
-152
-150
-156
-156
-149
-131
-117
-112
-96
-81
-64
-49
-43
-33
-19
4
13
11
17
17
17
7
-11
-26
-33
-33
-49
-65
-76
-89
-101
-121
-148
-175
-199
-221
-263
-305
-349
-396
-441
-504
-563
-618
-659
-695
-746
-785
-819
-851
-881
-922
-960
-993
-1012
-1031
-1071
-1095
-1119
-1139
-1154
-1171
-1176
-1167
-1141
-1110
-1077
-1022
-955
-871
-775
-671
-545
-395
-216
-30
167
392
632
893
1166
1455
1769
2115
2489
2868
3266
3685
4118
4565
5018
5475
5942
6422
6912
7385
7861
8330
8783
9220
9618
9990
10335
10657
10946
11183
11391
11566
11709
11821
11890
11935
11957
11966
11948
11882
11808
11708
11586
11441
11269
11079
10873
10656
10414
10145
9871
9578
9272
8946
8597
8242
7885
7530
7156
6773
6397
6019
5648
5271
4893
4524
4169
3828
3478
3136
2809
2488
2178
1871
1570
1282
1011
756
491
246
12
-211
-419
-629
-825
-1005
-1163
-1309
-1458
-1588
-1706
-1814
-1910
-2012
-2100
-2177
-2233
-2286
-2353
-2402
-2449
-2491
-2532
-2580
-2623
-2660
-2688
-2723
-2768
-2802
-2839
-2875
-2914
-2962
-3004
-3037
-3057
-3087
-3118
-3137
-3155
-3167
-3183
-3200
-3209
-3206
-3194
-3195
-3194
-3187
-3181
-3173
-3172
-3173
-3172
-3162
-3147
-3153
-3151
-3148
-3148
-3144
-3154
-3163
-3169
-3166
-3162
-3174
-3176
-3177
-3175
-3170
-3178
-3180
-3174
-3154
-3134
-3129
-3111
-3093
-3073
-3056
-3045
-3032
-3013
-2987
-2966
-2957
-2937
-2920
-2901
-2888
-2885
-2879
-2867
-2846
-2838
-2836
-2827
-2821
-2811
-2812
-2815
-2813
-2800
-2779
-2770
-2761
-2745
-2729
-2709
-2697
-2686
-2672
-2646
-2615
-2605
-2584
-2562
-2542
-2519
-2508
-2495
-2478
-2454
-2430
-2423
-2406
-2391
-2377
-2360
-2360
-2354
-2344
-2322
-2303
-2299
-2283
-2268
-2251
-2236
-2229
-2217
-2200
-2172
-2152
-2143
-2122
-2105
-2086
-2072
-2066
-2056
-2037
-2009
-1993
-1980
-1958
-1940
-1918
-1906
-1899
-1888
-1868
-1843
-1831
-1822
-1808
-1796
-1782
-1776
-1772
-1764
-1743
-1717
-1713
-1697
-1679
-1662
-1643
-1635
-1625
-1611
-1589
-1564
-1558
-1538
-1519
-1498
-1476
-1470
-1457
-1440
-1413
-1390
-1383
-1367
-1354
-1341
-1331
-1331
-1329
-1321
-1305
-1297
-1300
-1292
-1286
-1277
-1274
-1277
-1275
-1265
-1245
-1238
-1233
-1219
-1207
-1191
-1183
-1179
-1169
-1149
-1123
-1110
-1099
-1083
-1068
-1052
-1049
-1047
-1044
-1029
-1011
-1018
-1013
-1008
-1005
-1000
-1006
-1010
-1011
-1001
-990
-997
-989
-983
-976
-966
-971
-969
-961
-942
-926
-920
-904
-889
-872
-859
-855
-849
-838
-818
-810
-812
-805
-802
-799
-803
-816
-825
-826
-819
-827
-836
-836
-838
-836
-841
-849
-851
-844
-829
-824
-818
-806
-793
-775
-767
-756
-741
-712
-681
-671
-651
-633
-616
-599
-595
-591
-587
-575
-564
-575
-573
-574
-576
-577
-592
-601
-605
-599
-597
-605
-604
-603
-600
-597
-601
-599
-588
-565
-549
-541
-522
-505
-486
-473
-469
-461
-448
-428
-426
-427
-423
-424
-424
-432
-444
-454
-457
-454
-462
-469
-472
-474
-470
-480
-485
-484
-469
-449
-446
-430
-413
-394
-373
-362
-350
-336
-312
-289
-291
-278
-270
-266
-265
-277
-288
-296
-296
-303
-320
-329
-339
-346
-356
-373
-384
-387
-379
-378
-384
-378
-373
-364
-359
-357
-349
-330
-302
-289
-276
-257
-242
-225
-217
-214
-211
-203
-191
-194
-196
-196
-197
-194
-205
-214
-219
-210
-197
-202
-197
-190
-181
-168
-164
-155
-140
-110
-78
-64
-32
-1
31
63
85
110
138
173
201
215
237
253
268
277
275
277
284
301
308
306
314
321
331
335
334
338
354
380
391
404
425
445
470
489
504
523
549
580
593
609
627
641
656
653
649
646
651
656
642
634
625
615
608
589
573
562
565
568
550
550
550
552
555
551
552
561
580
595
599
614
626
638
646
642
640
642
651
646
632
624
611
600
580
556
535
525
523
506
492
486
481
478
471
463
459
465
478
474
480
490
499
514
513
513
516
528
539
532
531
526
519
511
487
464
444
437
427
396
381
364
349
335
314
298
289
291
290
279
281
283
288
291
287
289
298
317
323
322
329
332
336
328
314
301
295
294
275
254
239
222
207
185
160
141
132
130
111
103
99
96
99
90
86
88
102
119
123
136
149
162
177
176
177
181
196
206
195
194
189
182
172
152
135
122
119
110
91
86
80
78
75
65
63
72
93
103
111
131
150
172
186
196
209
230
256
265
272
281
287
291
287
277
267
267
270
252
245
240
234
232
220
212
209
218
230
229
240
252
266
283
287
298
315
345
372
382
401
417
432
443
443
442
444
451
448
432
425
413
401
385
360
339
327
325
313
298
294
289
290
284
276
274
284
302
308
316
329
343
359
366
370
376
391
408
399
399
397
390
383
362
341
323
313
304
278
264
250
239
232
212
199
192
200
206
200
206
212
221
228
228
232
241
259
268
264
269
270
271
262
244
227
215
210
188
163
145
125
109
85
59
39
32
33
23
16
16
17
22
19
17
18
33
51
47
55
63
67
71
62
52
42
39
35
9
-5
-24
-43
-62
-95
-121
-140
-147
-156
-175
-181
-186
-188
-189
-195
-196
-188
-170
-159
-157
-143
-132
-118
-111
-113
-112
-105
-91
-94
-101
-103
-109
-115
-132
-154
-173
-184
-189
-205
-221
-231
-240
-245
-259
-271
-278
-271
-260
-270
-267
-263
-259
-253
-256
-257
-254
-240
-227
-233
-226
-222
-218
-215
-227
-237
-242
-239
-242
-256
-262
-270
-275
-282
-298
-309
-312
-305
-304
-312
-308
-306
-300
-300
-305
-304
-295
-277
-272
-269
-257
-247
-235
-232
-233
-232
-224
-212
-214
-217
-217
-220
-222
-237
-252
-264
-263
-259
-275
-279
-282
-284
-283
-291
-296
-297
-286
-273
-281
-271
-261
-250
-236
-233
-225
-211
-189
-172
-168
-156
-149
-142
-139
-149
-157
-161
-157
-165
-182
-188
-198
-205
-218
-236
-249
-251
-244
-250
-254
-250
-246
-238
-236
-237
-232
-219
-199
-191
-181
-168
-158
-146
-150
-154
-157
-149
-140
-152
-157
-162
-168
-173
-188
-200
-207
-201
-193
-204
-195
-186
-174
-158
-151
-137
-116
-85
-58
-40
-13
14
43
69
86
106
131
164
185
195
211
222
233
234
227
223
228
240
236
232
235
237
243
244
243
247
259
278
285
297
315
333
355
364
375
391
418
447
457
473
487
500
510
506
500
495
501
504
483
477
468
459
449
430
415
406
406
403
391
390
389
392
394
389
390
398
418
429
433
448
460
475
481
479
480
488
502
496
488
483
474
465
447
424
404
391
386
364
350
340
331
328
312
301
295
303
314
311
316
323
331
342
340
342
347
364
377
367
369
366
361
353
333
314
297
287
270
243
226
207
192
174
150
133
128
134
132
126
131
135
142
142
138
139
149
167
168
169
175
177
180
175
165
155
151
151
130
116
102
86
73
46
22
2
-7
-13
-32
-42
-49
-55
-57
-72
-82
-85
-74
-63
-70
-62
-56
-48
-41
-43
-43
-40
-29
-27
-38
-40
-47
-54
-67
-91
-113
-127
-133
-151
-173
-185
-199
-208
-224
-242
-254
-255
-247
-254
-258
-256
-253
-246
-244
-244
-240
-227
-209
-212
-208
-203
-200
-196
-207
-218
-229
-233
-237
-259
-273
-288
-302
-314
-340
-360
-373
-371
-371
-386
-386
-386
-382
-379
-382
-380
-372
-354
-340
-337
-321
-308
-294
-286
-288
-289
-284
-273
-275
-285
-289
-299
-307
-326
-349
-369
-381
-385
-402
-418
-427
-434
-438
-447
-456
-460
-452
-436
-441
-433
-421
-409
-393
-389
-382
-371
-351
-331
-329
-319
-311
-305
-299
-311
-320
-327
-323
-322
-337
-341
-345
-347
-351
-361
-365
-362
-348
-341
-342
-332
-323
-310
-301
-298
-291
-274
-248
-235
-225
-209
-196
-181
-179
-183
-185
-180
-171
-176
-185
-189
-196
-200
-212
-226
-236
-233
-224
-236
-233
-228
-222
-211
-209
-204
-194
-173
-151
-144
-125
-106
-88
-66
-62
-54
-43
-24
-10
-12
-8
-8
-8
-12
-26
-37
-44
-40
-43
-54
-53
-52
-47
-44
-47
-42
-27
0
16
31
55
78
106
124
139
160
188
223
243
261
282
301
319
325
328
332
346
362
354
356
359
361
364
359
355
356
367
380
374
383
391
401
414
412
417
428
451
470
479
497
512
529
541
542
545
551
564
565
554
551
543
536
522
501
485
477
478
466
453
449
444
444
437
428
426
432
447
451
455
465
475
488
489
490
494
510
526
519
521
520
517
512
494
475
456
447
437
407
392
376
362
350
326
309
298
299
298
287
287
287
290
291
284
282
288
302
307
301
304
302
299
287
265
245
231
223
197
167
140
109
78
36
-12
-60
-102
-141
-195
-250
-303
-357
-408
-471
-530
-583
-619
-648
-691
-717
-737
-753
-766
-787
-805
-820
-822
-825
-850
-859
-867
-872
-873
-882
-882
-871
-846
-818
-794
-754
-708
-653
-590
-528
-451
-358
-243
-126
-3
145
305
480
658
841
1036
1251
1484
1714
1959
2229
2515
2823
3141
3472
3822
4191
4575
4956
5349
5752
6156
6562
6946
7319
7676
8020
8338
8605
8845
9051
9222
9361
9455
9518
9552
9569
9559
9502
9440
9355
9254
9135
8989
8831
8661
8483
8288
8072
7857
7630
7398
7154
6894
6633
6375
6124
5864
5598
5344
5090
4840
4585
4325
4070
3826
3590
3338
3088
2845
2601
2361
2115
1869
1628
1398
1177
945
723
510
301
101
-107
-306
-495
-665
-825
-995
-1149
-1295
-1434
-1562
-1694
-1815
-1925
-2014
-2098
-2196
-2272
-2344
-2409
-2471
-2537
-2595
-2644
-2680
-2718
-2763
-2797
-2832
-2864
-2897
-2938
-2974
-3002
-3018
-3044
-3076
-3098
-3120
-3137
-3160
-3186
-3204
-3211
-3207
-3216
-3222
-3220
-3218
-3213
-3212
-3214
-3212
-3200
-3182
-3178
-3166
-3150
-3136
-3118
-3115
-3110
-3103
-3086
-3067
-3064
-3054
-3045
-3035
-3024
-3025
-3020
-3011
-2987
-2963
-2959
-2938
-2919
-2897
-2876
-2862
-2845
-2822
-2789
-2761
-2744
-2715
-2687
-2656
-2627
-2605
-2576
-2539
-2492
-2457
-2429
-2391
-2356
-2319
-2292
-2269
-2244
-2210
-2170
-2147
-2124
-2096
-2071
-2045
-2025
-2008
-1988
-1959
-1924
-1908
-1882
-1854
-1826
-1795
-1777
-1755
-1729
-1691
-1652
-1627
-1595
-1562
-1531
-1498
-1480
-1458
-1433
-1397
-1365
-1354
-1332
-1314
-1297
-1282
-1277
-1269
-1257
-1237
-1223
-1219
-1204
-1190
-1174
-1162
-1157
-1147
-1130
-1101
-1084
-1071
-1048
-1026
-1001
-983
-970
-954
-928
-897
-882
-868
-851
-838
-826
-822
-824
-825
-819
-808
-820
-822
-823
-823
-819
-827
-833
-834
-825
-814
-818
-813
-806
-797
-786
-787
-782
-771
-745
-721
-714
-696
-680
-664
-652
-648
-644
-637
-623
-619
-628
-627
-631
-633
-641
-659
-673
-679
-676
-684
-696
-698
-702
-702
-710
-720
-724
-717
-702
-699
-695
-684
-674
-662
-658
-657
-656
-644
-630
-639
-638
-639
-642
-646
-664
-681
-697
-705
-712
-736
-749
-762
-774
-783
-807
-825
-835
-832
-831
-843
-843
-844
-840
-837
-840
-839
-833
-817
-809
-814
-808
-807
-806
-812
-829
-845
-855
-860
-879
-903
-920
-940
-957
-983
-1013
-1038
-1052
-1059
-1076
-1093
-1102
-1110
-1114
-1124
-1133
-1136
-1123
-1105
-1108
-1098
-1087
-1077
-1066
-1067
-1068
-1067
-1060
-1055
-1071
-1077
-1087
-1100
-1112
-1140
-1164
-1182
-1189
-1199
-1220
-1230
-1241
-1247
-1254
-1266
-1272
-1270
-1254
-1245
-1243
-1228
-1213
-1195
-1181
-1175
-1165
-1148
-1125
-1118
-1116
-1109
-1109
-1108
-1120
-1138
-1153
-1162
-1165
-1181
-1199
-1211
-1223
-1231
-1247
-1262
-1271
-1265
-1253
-1261
-1254
-1244
-1231
-1214
-1204
-1191
-1174
-1145
-1115
-1106
-1083
-1065
-1048
-1031
-1033
-1031
-1028
-1018
-1015
-1026
-1029
-1035
-1040
-1048
-1065
-1076
-1081
-1073
-1072
-1077
-1069
-1061
-1048
-1038
-1033
-1023
-1003
-973
-956
-940
-915
-893
-868
-853
-842
-829
-809
-786
-777
-771
-763
-759
-753
-760
-766
-769
-757
-742
-748
-740
-730
-717
-701
-691
-678
-660
-628
-593
-576
-542
-508
-471
-432
-405
-373
-334
-286
-243
-213
-174
-139
-104
-72
-51
-28
0
36
62
79
107
134
163
188
207
233
270
317
349
384
426
468
514
553
590
631
679
734
776
816
857
895
933
955
975
995
1025
1054
1060
1074
1086
1097
1107
1107
1109
1114
1131
1149
1147
1163
1178
1195
1214
1223
1237
1257
1286
1311
1325
1348
1368
1389
1406
1411
1418
1430
1449
1456
1450
1452
1449
1444
1431
1410
1391
1382
1381
1364
1349
1341
1332
1327
1316
1301
1292
1291
1297
1289
1286
1286
1286
1291
1281
1274
1271
1280
1291
1281
1280
1277
1274
1270
1252
1235
1219
1214
1206
1176
1161
1144
1127
1110
1084
1063
1048
1042
1033
1015
1007
997
991
982
966
955
952
961
959
952
955
954
956
948
934
922
918
920
904
887
874
857
841
818
790
765
747
734
706
684
666
648
636
609
587
570
567
567
552
546
542
540
540
529
522
519
527
534
518
517
512
505
496
476
457
441
432
416
389
372
353
335
314
285
261
247
243
229
210
202
194
189
178
163
154
156
167
162
158
158
155
152
142
126
112
103
98
73
55
37
18
2
-28
-56
-79
-91
-99
-121
-133
-143
-151
-155
-171
-180
-182
-168
-154
-156
-143
-130
-115
-103
-98
-92
-82
-65
-56
-61
-57
-58
-59
-67
-86
-102
-111
-111
-124
-142
-150
-160
-165
-177
-192
-201
-199
-188
-191
-191
-185
-177
-167
-162
-159
-153
-138
-119
-120
-113
-106
-102
-97
-108
-118
-128
-130
-133
-154
-166
-179
-192
-203
-228
-249
-264
-264
-266
-283
-286
-290
-289
-289
-294
-294
-288
-270
-257
-253
-238
-226
-212
-203
-205
-204
-198
-184
-185
-194
-196
-202
-207
-222
-241
-255
-260
-256
-266
-275
-276
-275
-271
-271
-272
-269
-253
-231
-228
-213
-196
-178
-156
-147
-136
-121
-98
-74
-68
-54
-42
-31
-18
-23
-25
-23
-11
-3
-12
-11
-13
-13
-15
-24
-29
-27
-13
-6
-7
2
10
18
20
11
1
-5
-8
-29
-60
-88
-123
-160
-211
-269
-326
-374
-416
-472
-527
-574
-621
-665
-715
-763
-803
-827
-842
-874
-889
-897
-898
-888
-880
-861
-830
-780
-717
-658
-576
-481
-373
-249
-128
12
171
355
551
747
970
1207
1465
1740
2028
2341
2683
3056
3442
3836
4260
4698
5155
5619
6085
6564
7056
7559
8044
8517
8982
9422
9839
10216
10559
10871
11156
11407
11607
11770
11903
11998
12062
12083
12073
12037
11985
11912
11793
11666
11521
11360
11185
10985
10770
10542
10309
10064
9786
9507
9212
8901
8577
8226
7869
7507
7149
6782
6399
6024
5647
5272
4895
4512
4134
3766
3412
3056
2697
2358
2024
1702
1384
1070
773
498
244
-10
-252
-473
-682
-875
-1063
-1242
-1403
-1545
-1667
-1790
-1903
-2001
-2090
-2167
-2248
-2324
-2393
-2445
-2491
-2557
-2611
-2664
-2717
-2770
-2832
-2892
-2948
-2993
-3036
-3099
-3144
-3189
-3230
-3266
-3311
-3347
-3374
-3387
-3399
-3419
-3425
-3429
-3429
-3428
-3433
-3432
-3424
-3404
-3392
-3390
-3379
-3371
-3363
-3365
-3375
-3383
-3385
-3381
-3393
-3408
-3418
-3429
-3437
-3453
-3471
-3483
-3484
-3476
-3476
-3472
-3460
-3444
-3422
-3409
-3391
-3368
-3329
-3285
-3260
-3222
-3183
-3144
-3106
-3079
-3054
-3028
-2993
-2961
-2953
-2933
-2918
-2905
-2895
-2899
-2900
-2896
-2882
-2871
-2869
-2856
-2843
-2824
-2806
-2794
-2776
-2749
-2710
-2679
-2656
-2620
-2586
-2549
-2517
-2491
-2462
-2426
-2384
-2360
-2339
-2314
-2293
-2273
-2263
-2259
-2254
-2243
-2227
-2225
-2221
-2212
-2203
-2190
-2190
-2186
-2177
-2154
-2126
-2116
-2095
-2072
-2048
-2022
-2005
-1987
-1964
-1929
-1894
-1881
-1852
-1827
-1803
-1780
-1771
-1760
-1746
-1726
-1712
-1711
-1702
-1697
-1692
-1691
-1700
-1704
-1699
-1684
-1676
-1674
-1660
-1646
-1627
-1614
-1605
-1591
-1567
-1534
-1516
-1497
-1471
-1446
-1418
-1397
-1381
-1362
-1337
-1307
-1294
-1277
-1260
-1246
-1229
-1228
-1225
-1220
-1202
-1182
-1180
-1170
-1161
-1150
-1137
-1136
-1131
-1122
-1100
-1077
-1077
-1060
-1044
-1028
-1011
-1003
-990
-972
-946
-926
-918
-901
-889
-876
-868
-871
-873
-869
-857
-858
-868
-868
-871
-870
-876
-886
-890
-883
-867
-864
-859
-845
-831
-815
-803
-794
-780
-758
-730
-717
-697
-674
-654
-632
-626
-618
-609
-591
-574
-575
-571
-569
-569
-570
-585
-597
-605
-600
-596
-612
-612
-611
-609
-606
-611
-611
-604
-588
-577
-575
-561
-549
-534
-523
-521
-515
-503
-482
-474
-475
-469
-468
-466
-475
-492
-506
-513
-514
-531
-547
-558
-570
-579
-593
-608
-619
-620
-614
-625
-626
-624
-622
-614
-618
-619
-614
-598
-578
-574
-561
-550
-540
-529
-533
-535
-534
-522
-513
-525
-524
-527
-529
-535
-548
-558
-564
-559
-560
-571
-569
-568
-563
-560
-564
-562
-552
-533
-524
-521
-508
-498
-484
-480
-481
-480
-471
-455
-457
-461
-462
-466
-472
-486
-505
-522
-529
-532
-555
-567
-577
-586
-590
-605
-616
-621
-615
-604
-607
-599
-590
-578
-561
-558
-548
-533
-504
-479
-472
-454
-440
-427
-419
-420
-421
-420
-410
-410
-421
-422
-425
-426
-432
-446
-454
-451
-438
-436
-437
-426
-416
-401
-392
-385
-371
-346
-312
-290
-267
-237
-208
-178
-156
-137
-117
-88
-56
-49
-32
-16
-3
11
12
13
18
32
47
48
60
73
88
106
111
124
145
179
212
231
263
294
327
358
382
408
437
474
500
513
535
550
564
570
564
559
559
565
557
544
539
532
528
516
501
491
491
499
495
491
495
499
506
506
506
509
525
546
544
552
559
564
569
561
551
541
539
535
511
496
479
462
446
415
390
370
363
355
336
329
323
322
320
311
309
313
329
338
336
347
356
366
371
367
365
371
384
381
373
370
362
357
340
319
301
292
290
276
264
257
253
252
243
235
231
241
255
247
253
259
265
273
272
271
273
283
293
283
284
282
279
274
254
237
225
221
212
191
179
167
157
146
128
116
111
119
119
110
115
120
129
134
133
138
153
177
188
198
215
228
244
248
248
250
259
272
271
267
266
264
263
251
239
232
239
250
241
244
251
259
270
273
278
289
311
336
341
361
381
401
422
430
442
459
483
502
509
522
531
540
542
533
525
521
527
522
509
507
503
503
499
490
487
495
512
516
520
532
542
556
560
562
568
580
599
604
608
615
619
624
614
604
595
597
599
579
566
553
539
526
503
482
465
461
459
437
433
428
424
422
408
400
399
407
413
410
417
423
430
432
424
417
415
421
416
399
391
379
367
347
320
297
283
277
256
236
223
210
201
185
168
157
154
158
151
148
150
152
160
153
150
150
163
177
170
171
170
166
162
144
127
111
105
97
67
53
38
23
10
-12
-27
-35
-33
-32
-41
-39
-37
-31
-28
-32
-32
-24
-6
2
2
12
18
25
23
14
6
5
9
-5
-20
-31
-47
-60
-81
-104
-124
-135
-139
-156
-166
-170
-174
-172
-183
-189
-190
-176
-159
-157
-145
-134
-122
-108
-108
-107
-103
-90
-79
-93
-95
-101
-109
-121
-143
-164
-181
-190
-204
-228
-242
-256
-266
-277
-294
-305
-307
-298
-298
-304
-300
-297
-292
-293
-301
-304
-298
-284
-287
-290
-290
-293
-295
-306
-323
-338
-346
-350
-371
-387
-399
-413
-421
-444
-463
-476
-476
-473
-485
-487
-488
-487
-483
-492
-495
-494
-477
-461
-464
-451
-440
-428
-418
-417
-414
-406
-390
-381
-382
-374
-370
-364
-362
-370
-372
-367
-352
-347
-348
-339
-332
-321
-318
-318
-315
-300
-278
-269
-260
-245
-231
-214
-202
-193
-182
-163
-140
-138
-129
-120
-113
-103
-108
-113
-116
-110
-104
-115
-118
-121
-124
-124
-138
-145
-147
-134
-121
-126
-117
-107
-94
-81
-74
-62
-43
-15
9
22
47
69
92
109
117
127
143
167
176
178
186
189
194
188
178
171
175
186
184
183
188
192
200
202
203
207
222
245
247
261
277
293
313
319
326
336
354
371
371
378
383
385
388
373
362
353
357
358
341
337
330
325
319
307
298
296
305
308
302
308
313
321
326
324
327
339
360
369
371
382
388
396
393
384
377
377
381
368
353
342
329
318
299
279
262
257
258
238
231
225
220
219
207
199
196
204
216
212
220
228
235
245
237
234
235
246
252
241
237
230
223
210
188
168
154
148
134
111
99
86
77
64
46
33
30
38
36
31
37
42
51
53
52
56
69
87
91
92
97
99
102
93
82
71
69
71
49
39
28
16
6
-13
-29
-40
-41
-39
-53
-53
-52
-49
-43
-51
-51
-44
-26
-10
-6
5
14
23
27
21
16
15
21
16
-2
-11
-24
-36
-54
-80
-101
-114
-118
-134
-151
-159
-167
-169
-179
-191
-198
-194
-183
-182
-179
-170
-161
-149
-147
-146
-144
-130
-114
-123
-123
-125
-130
-137
-155
-174
-190
-196
-202
-227
-238
-250
-260
-267
-287
-299
-305
-298
-293
-298
-291
-285
-274
-265
-263
-256
-242
-218
-204
-200
-187
-179
-170
-169
-178
-186
-188
-184
-196
-212
-222
-235
-245
-265
-287
-303
-310
-308
-315
-321
-321
-319
-311
-313
-313
-308
-289
-265
-261
-246
-230
-214
-198
-194
-190
-185
-172
-162
-175
-176
-181
-189
-198
-220
-237
-249
-250
-254
-268
-270
-272
-270
-268
-272
-269
-257
-234
-219
-212
-194
-177
-157
-144
-137
-126
-108
-85
-79
-76
-69
-68
-67
-78
-94
-109
-118
-121
-137
-152
-162
-171
-174
-190
-202
-208
-199
-185
-188
-180
-168
-155
-138
-130
-118
-103
-76
-48
-42
-20
-3
14
28
29
32
37
48
52
44
43
38
36
30
16
7
7
18
22
21
31
41
55
64
69
80
102
132
148
164
187
208
229
241
248
257
270
287
288
289
292
292
293
279
266
256
259
265
254
253
253
255
260
256
254
257
274
292
288
303
316
331
346
351
357
368
385
395
392
395
394
392
384
365
348
335
329
310
281
258
231
204
165
117
70
30
-4
-55
-106
-151
-195
-236
-279
-321
-355
-375
-383
-403
-414
-421
-428
-430
-446
-459
-469
-466
-458
-465
-462
-454
-442
-424
-412
-391
-362
-314
-261
-222
-158
-88
-8
79
168
273
396
542
696
851
1027
1213
1411
1616
1823
2048
2297
2573
2856
3151
3472
3807
4158
4512
4869
5238
5626
6027
6414
6798
7178
7541
7885
8198
8481
8734
8963
9163
9313
9438
9532
9594
9629
9621
9589
9538
9475
9394
9280
9156
9015
8858
8687
8486
8275
8056
7841
7614
7359
7109
6849
6582
6308
6024
5742
5466
5201
4933
4658
4396
4136
3881
3626
3367
3116
2875
2646
2408
2167
1939
1711
1490
1265
1039
821
617
425
222
24
-164
-347
-523
-700
-872
-1033
-1177
-1307
-1450
-1576
-1692
-1801
-1898
-2001
-2093
-2175
-2241
-2298
-2366
-2420
-2469
-2513
-2552
-2601
-2641
-2675
-2693
-2712
-2749
-2772
-2797
-2820
-2845
-2878
-2908
-2933
-2948
-2968
-2997
-3013
-3030
-3043
-3059
-3081
-3095
-3100
-3094
-3097
-3103
-3099
-3095
-3087
-3086
-3086
-3080
-3063
-3037
-3023
-3008
-2986
-2965
-2943
-2929
-2918
-2906
-2884
-2859
-2856
-2843
-2831
-2821
-2808
-2807
-2804
-2797
-2781
-2763
-2759
-2745
-2729
-2711
-2690
-2683
-2669
-2649
-2616
-2586
-2570
-2542
-2514
-2484
-2456
-2436
-2413
-2386
-2351
-2326
-2312
-2290
-2273
-2255
-2244
-2243
-2240
-2230
-2213
-2209
-2209
-2200
-2192
-2180
-2176
-2173
-2165
-2146
-2118
-2103
-2086
-2063
-2039
-2012
-1991
-1970
-1945
-1907
-1864
-1844
-1812
-1781
-1752
-1723
-1706
-1691
-1676
-1654
-1632
-1631
-1620
-1610
-1602
-1590
-1593
-1590
-1582
-1560
-1542
-1535
-1517
-1499
-1478
-1458
-1443
-1424
-1398
-1362
-1331
-1310
-1276
-1245
-1212
-1186
-1169
-1149
-1124
-1091
-1074
-1063
-1046
-1035
-1023
-1023
-1027
-1028
-1021
-1007
-1006
-1006
-999
-992
-981
-979
-975
-967
-945
-917
-911
-891
-869
-846
-821
-805
-788
-768
-740
-712
-705
-687
-672
-660
-649
-656
-661
-664
-658
-659
-672
-676
-682
-685
-690
-701
-707
-706
-693
-687
-690
-681
-673
-662
-655
-653
-645
-628
-602
-590
-579
-563
-551
-538
-537
-541
-545
-544
-539
-549
-563
-575
-589
-601
-624
-647
-666
-672
-673
-693
-699
-703
-705
-704
-711
-715
-713
-701
-686
-690
-678
-667
-656
-645
-648
-649
-647
-637
-634
-644
-649
-659
-669
-684
-710
-733
-752
-760
-778
-802
-815
-828
-836
-849
-866
-877
-877
-867
-871
-874
-869
-866
-859
-861
-864
-864
-857
-844
-844
-846
-846
-849
-851
-870
-889
-908
-917
-924
-955
-977
-998
-1020
-1041
-1071
-1098
-1119
-1127
-1132
-1154
-1159
-1162
-1163
-1162
-1172
-1176
-1174
-1163
-1156
-1159
-1153
-1150
-1145
-1144
-1155
-1163
-1166
-1161
-1168
-1185
-1192
-1203
-1211
-1226
-1246
-1261
-1266
-1262
-1271
-1279
-1278
-1277
-1271
-1272
-1274
-1270
-1257
-1238
-1230
-1220
-1205
-1189
-1168
-1160
-1148
-1132
-1104
-1075
-1066
-1049
-1033
-1018
-1003
-999
-995
-989
-973
-958
-966
-957
-951
-945
-938
-940
-938
-929
-911
-896
-890
-874
-860
-844
-829
-824
-813
-794
-765
-745
-734
-713
-695
-675
-664
-661
-656
-643
-625
-624
-625
-621
-620
-615
-618
-623
-624
-616
-599
-594
-583
-568
-550
-527
-516
-500
-478
-442
-401
-377
-342
-304
-266
-225
-196
-166
-133
-88
-46
-28
5
34
61
86
99
114
134
162
186
200
226
251
279
306
325
349
382
426
460
489
529
566
607
641
669
701
741
788
816
842
871
896
920
934
942
950
963
980
979
982
986
989
995
986
982
982
995
1012
1013
1023
1035
1049
1066
1071
1081
1094
1122
1148
1153
1174
1192
1209
1223
1225
1228
1232
1242
1243
1231
1227
1217
1207
1191
1165
1144
1131
1128
1114
1096
1090
1083
1081
1072
1059
1053
1058
1073
1072
1072
1078
1084
1092
1094
1091
1090
1095
1103
1091
1084
1077
1065
1055
1029
1004
981
967
955
928
911
894
880
870
848
834
827
836
844
835
841
848
856
863
863
866
874
891
902
901
909
911
913
908
892
878
869
867
851
829
813
795
780
756
728
705
694
691
675
662
656
650
647
640
630
624
629
639
628
628
629
629
631
619
607
597
593
590
568
553
536
517
500
467
438
413
402
389
359
343
327
315
303
284
270
262
265
263
251
250
248
248
243
231
224
225
234
230
219
216
209
203
187
167
149
139
136
116
96
81
65
51
31
10
-8
-13
-12
-33
-40
-45
-51
-52
-65
-73
-77
-70
-60
-65
-59
-53
-47
-38
-46
-48
-45
-31
-21
-29
-27
-28
-30
-35
-50
-61
-68
-65
-70
-84
-86
-89
-89
-93
-103
-108
-104
-89
-86
-85
-74
-64
-50
-44
-42
-35
-21
-1
4
6
10
12
14
5
-6
-16
-16
-12
-32
-39
-46
-53
-57
-71
-82
-88
-85
-78
-87
-83
-78
-71
-61
-65
-61
-51
-28
-8
0
17
30
43
52
51
51
54
65
66
55
53
48
43
33
14
1
-4
1
-7
-16
-15
-16
-11
-16
-21
-21
-12
6
13
21
33
46
62
67
70
75
92
111
106
111
114
114
114
102
89
79
78
78
58
53
47
41
38
22
13
11
21
28
26
34
42
54
66
70
79
94
119
135
140
154
163
172
172
163
156
153
157
143
126
115
103
92
73
52
36
29
31
23
17
17
20
27
25
26
31
51
76
80
95
110
123
136
138
138
139
147
154
137
132
123
111
100
74
53
38
32
23
6
0
-6
-7
-10
-19
-21
-16
2
13
17
34
49
68
81
87
96
112
135
140
142
147
148
148
138
123
109
101
98
83
68
57
47
42
27
15
8
16
30
26
35
45
57
72
80
90
105
132
160
165
184
199
212
222
218
216
216
222
221
207
200
189
180
168
146
129
119
120
113
99
97
94
95
91
82
79
86
103
106
108
117
124
133
132
125
121
120
124
111
100
90
77
66
39
14
-8
-16
-22
-44
-55
-62
-67
-68
-77
-82
-82
-67
-52
-56
-44
-32
-19
-8
-6
-1
8
23
31
26
28
24
19
8
-13
-31
-44
-48
-63
-85
-95
-107
-115
-129
-146
-158
-159
-151
-157
-161
-156
-152
-145
-143
-143
-139
-126
-107
-101
-91
-77
-66
-53
-57
-61
-63
-57
-50
-63
-69
-77
-85
-92
-111
-126
-136
-133
-129
-146
-144
-142
-139
-135
-139
-138
-130
-114
-101
-99
-86
-75
-62
-52
-52
-49
-40
-23
-17
-20
-15
-15
-14
-23
-38
-51
-55
-52
-65
-76
-81
-87
-89
-96
-105
-109
-105
-93
-98
-94
-87
-80
-67
-68
-64
-56
-38
-18
-15
-6
2
8
14
5
-3
-9
-5
-3
-25
-31
-41
-50
-61
-79
-94
-102
-100
-103
-115
-114
-114
-110
-108
-113
-112
-101
-79
-66
-58
-40
-23
-4
5
9
16
30
50
51
49
51
48
45
32
16
2
-3
-3
-22
-31
-38
-43
-44
-57
-66
-69
-61
-50
-52
-43
-33
-21
-5
-2
7
19
44
64
64
75
82
88
89
80
71
65
64
56
36
26
14
4
-9
-29
-43
-49
-44
-48
-56
-53
-51
-43
-43
-44
-41
-26
-4
5
14
29
41
54
57
56
56
62
71
57
51
44
34
25
3
-17
-34
-41
-46
-65
-73
-81
-86
-86
-100
-106
-105
-90
-76
-75
-60
-45
-28
-14
-8
0
11
28
36
31
34
31
29
19
-2
-20
-32
-35
-52
-71
-81
-93
-99
-113
-129
-139
-139
-130
-132
-133
-127
-121
-110
-105
-100
-91
-71
-45
-42
-29
-17
-8
1
-5
-11
-17
-16
-16
-36
-47
-59
-71
-82
-109
-130
-145
-146
-149
-164
-166
-167
-165
-164
-168
-168
-159
-140
-126
-121
-104
-90
-76
-68
-71
-73
-68
-59
-66
-79
-88
-102
-116
-141
-170
-195
-211
-219
-240
-259
-270
-280
-285
-297
-307
-312
-302
-285
-289
-280
-269
-257
-242
-236
-228
-217
-197
-177
-176
-164
-155
-147
-138
-147
-152
-154
-147
-145
-155
-156
-158
-158
-160
-168
-171
-166
-150
-140
-137
-122
-106
-86
-70
-59
-43
-19
15
35
51
74
92
112
120
123
127
136
148
145
138
133
128
124
109
94
83
85
92
79
80
83
88
96
98
104
114
135
159
164
185
205
225
246
252
261
272
291
302
300
303
300
297
289
270
255
245
246
237
221
216
211
211
205
195
191
197
212
214
216
225
232
242
245
245
249
261
279
283
285
289
290
292
278
264
250
248
247
224
211
199
186
176
158
143
132
135
140
126
129
132
138
146
143
145
154
173
189
196
211
223
234
241
238
236
238
247
244
229
221
209
199
181
157
138
128
127
113
101
97
93
94
89
83
84
94
112
118
128
142
156
174
178
183
191
210
230
228
234
238
239
239
225
212
199
196
194
169
161
151
142
136
120
110
107
113
117
112
119
125
134
141
141
146
158
180
192
194
205
211
218
215
204
195
192
195
180
163
151
136
125
108
87
70
62
62
50
44
42
42
49
43
41
45
62
84
88
101
115
129
142
143
143
143
154
163
147
145
139
132
121
99
80
68
64
56
39
33
26
23
18
7
1
4
17
20
17
23
28
36
36
30
28
36
50
46
40
39
33
27
12
-8
-27
-40
-48
-72
-90
-106
-122
-133
-158
-179
-193
-195
-194
-208
-214
-219
-222
-223
-235
-244
-247
-237
-226
-236
-230
-226
-222
-220
-227
-232
-233
-227
-227
-240
-243
-251
-258
-268
-288
-303
-310
-306
-312
-323
-322
-323
-319
-321
-327
-328
-317
-298
-294
-288
-274
-261
-245
-235
-228
-220
-205
-187
-189
-186
-183
-183
-183
-200
-216
-231
-238
-243
-264
-279
-294
-310
-325
-356
-385
-414
-432
-455
-501
-534
-570
-606
-643
-685
-722
-749
-764
-779
-800
-805
-808
-808
-810
-819
-823
-821
-810
-811
-818
-813
-807
-795
-786
-775
-754
-715
-660
-614
-560
-494
-421
-339
-256
-168
-69
50
186
315
467
631
805
992
1173
1364
1568
1792
2028
2264
2525
2806
3108
3429
3753
4098
4461
4849
5244
5632
6040
6450
6861
7264
7647
8013
8361
8691
8983
9230
9453
9637
9790
9904
9975
10018
10036
10034
9991
9916
9826
9712
9582
9425
9247
9055
8857
8653
8423
8185
7946
7699
7447
7183
6912
6641
6379
6123
5848
5586
5328
5072
4822
4564
4311
4065
3830
3599
3353
3119
2885
2653
2424
2183
1949
1723
1514
1306
1087
884
684
493
306
118
-58
-221
-366
-511
-658
-786
-909
-1022
-1132
-1243
-1342
-1425
-1492
-1565
-1636
-1692
-1746
-1793
-1845
-1898
-1945
-1981
-2009
-2050
-2091
-2127
-2163
-2199
-2243
-2289
-2332
-2361
-2384
-2427
-2455
-2479
-2501
-2518
-2542
-2562
-2576
-2579
-2577
-2589
-2587
-2583
-2578
-2569
-2573
-2571
-2563
-2543
-2526
-2524
-2513
-2506
-2499
-2496
-2503
-2509
-2512
-2506
-2509
-2524
-2528
-2534
-2537
-2544
-2557
-2564
-2560
-2544
-2540
-2536
-2521
-2507
-2488
-2476
-2466
-2450
-2425
-2392
-2371
-2350
-2324
-2300
-2275
-2261
-2250
-2238
-2216
-2193
-2196
-2189
-2183
-2181
-2178
-2188
-2196
-2200
-2195
-2188
-2198
-2194
-2188
-2181
-2169
-2170
-2164
-2151
-2126
-2105
-2093
-2073
-2053
-2031
-2011
-1999
-1983
-1962
-1932
-1913
-1906
-1890
-1878
-1866
-1862
-1868
-1871
-1868
-1858
-1863
-1870
-1871
-1873
-1872
-1879
-1886
-1888
-1880
-1863
-1856
-1847
-1832
-1815
-1793
-1781
-1767
-1747
-1713
-1675
-1658
-1630
-1603
-1580
-1557
-1547
-1538
-1529
-1513
-1499
-1508
-1504
-1504
-1504
-1503
-1515
-1522
-1522
-1511
-1502
-1502
-1489
-1477
-1461
-1447
-1440
-1428
-1408
-1378
-1356
-1343
-1319
-1298
-1275
-1259
-1253
-1245
-1231
-1210
-1206
-1205
-1200
-1199
-1197
-1204
-1216
-1224
-1225
-1218
-1222
-1225
-1222
-1218
-1209
-1211
-1210
-1204
-1184
-1161
-1156
-1141
-1123
-1105
-1086
-1077
-1065
-1050
-1025
-999
-995
-978
-964
-953
-943
-947
-949
-946
-935
-930
-936
-934
-932
-930
-929
-938
-941
-937
-921
-914
-914
-903
-892
-878
-869
-865
-857
-841
-815
-804
-793
-775
-759
-741
-733
-729
-722
-709
-693
-692
-691
-689
-690
-690
-705
-717
-727
-724
-719
-733
-736
-739
-739
-739
-748
-754
-756
-745
-731
-738
-727
-716
-703
-690
-687
-680
-668
-648
-635
-634
-624
-619
-615
-616
-628
-637
-642
-638
-644
-658
-663
-669
-673
-683
-698
-707
-706
-695
-697
-698
-690
-682
-670
-663
-658
-649
-632
-608
-598
-584
-569
-556
-542
-545
-548
-549
-540
-531
-541
-546
-551
-557
-561
-576
-588
-595
-588
-580
-592
-585
-578
-569
-559
-557
-550
-537
-514
-496
-489
-470
-454
-436
-422
-419
-414
-403
-385
-380
-385
-384
-387
-389
-401
-420
-435
-440
-438
-451
-462
-466
-470
-470
-474
-480
-481
-473
-458
-457
-449
-437
-425
-407
-403
-396
-383
-360
-336
-331
-320
-310
-301
-293
-300
-305
-308
-300
-296
-313
-316
-320
-323
-327
-338
-345
-345
-335
-328
-331
-322
-313
-300
-288
-283
-271
-250
-218
-194
-176
-148
-121
-92
-72
-57
-39
-12
20
35
48
65
80
95
103
108
115
131
153
159
173
191
210
234
245
259
279
311
346
366
396
426
458
492
511
534
561
598
632
644
668
687
704
717
720
722
727
739
743
736
739
739
742
742
735
732
739
756
763
765
777
788
804
813
819
832
857
890
909
927
949
969
987
997
999
1001
1010
1021
1008
1001
993
982
972
948
924
904
892
883
860
846
834
823
816
795
780
771
776
779
764
763
761
760
757
746
736
729
731
724
704
692
676
659
635
601
571
548
533
507
476
455
433
416
393
368
350
344
347
337
330
330
330
334
333
329
330
342
358
351
354
356
354
353
337
321
305
296
287
260
243
225
207
193
164
142
127
128
128
115
115
116
121
126
125
128
137
158
171
175
189
199
210
214
209
205
206
213
204
189
180
167
156
136
112
93
85
84
72
63
61
60
64
63
62
67
85
110
115
132
151
169
188
197
205
215
231
247
243
248
250
250
249
229
214
204
204
201
186
182
177
175
173
166
163
166
180
187
185
195
203
214
220
220
225
238
260
267
271
280
286
294
291
283
277
277
283
276
266
260
254
249
235
220
209
212
219
206
207
209
211
217
215
214
219
234
251
250
263
276
289
303
301
303
309
323
330
323
323
319
314
304
283
266
255
254
245
226
220
213
211
205
193
188
193
208
211
213
224
234
248
254
257
264
278
296
301
304
310
313
318
308
296
284
282
282
259
248
237
226
218
200
184
174
175
179
163
165
168
171
178
173
175
184
203
219
224
238
249
260
267
263
261
262
271
268
254
248
238
229
213
190
172
163
163
149
137
134
130
131
126
119
119
128
145
151
161
176
192
211
217
224
232
252
274
273
280
285
287
289
278
267
256
257
256
233
226
218
212
207
193
185
184
192
199
198
207
215
225
233
232
235
244
263
270
268
274
275
276
268
251
236
227
225
204
182
166
148
133
111
86
67
57
55
42
35
34
35
42
37
37
41
60
83
88
103
118
132
146
146
145
144
152
156
136
128
116
103
87
60
36
18
10
-3
-24
-35
-46
-53
-61
-76
-85
-84
-72
-69
-72
-64
-57
-47
-43
-44
-41
-31
-15
-18
-22
-22
-26
-30
-42
-59
-75
-83
-87
-105
-119
-129
-139
-143
-161
-174
-180
-173
-161
-165
-160
-152
-144
-133
-133
-129
-122
-100
-79
-80
-65
-54
-44
-38
-43
-47
-49
-44
-47
-62
-68
-77
-84
-94
-113
-127
-132
-127
-132
-142
-141
-140
-135
-136
-141
-141
-130
-110
-104
-97
-83
-69
-53
-44
-39
-33
-21
-6
-10
-9
-9
-14
-16
-34
-51
-66
-70
-71
-89
-98
-106
-113
-116
-130
-139
-142
-129
-116
-121
-110
-100
-88
-77
-74
-68
-56
-36
-22
-21
-12
-6
0
0
-12
-21
-26
-23
-33
-51
-60
-71
-78
-92
-110
-122
-122
-112
-116
-118
-112
-106
-96
-91
-88
-81
-64
-41
-37
-24
-10
3
17
14
12
11
18
25
13
7
-1
-9
-16
-38
-53
-64
-61
-58
-72
-70
-68
-63
-58
-60
-57
-48
-30
-17
-15
-2
9
23
32
34
39
50
69
74
71
76
77
80
72
58
46
43
46
34
23
17
11
8
0
-10
-17
-12
-1
-10
-7
-2
3
12
9
11
17
33
52
54
66
75
83
92
85
82
81
91
95
81
77
70
63
54
37
24
18
21
20
9
10
10
14
15
9
9
19
38
47
53
68
82
98
106
109
114
128
146
149
149
152
151
150
139
124
111
109
110
88
79
72
64
61
49
38
31
32
33
15
6
-8
-27
-46
-86
-124
-159
-184
-215
-261
-298
-337
-374
-413
-457
-495
-526
-544
-568
-601
-620
-640
-657
-677
-701
-716
-720
-709
-707
-701
-678
-650
-610
-572
-529
-474
-404
-322
-246
-162
-63
46
169
294
431
582
754
939
1109
1299
1500
1713
1944
2183
2443
2729
3045
3385
3727
4100
4489
4892
5309
5721
6146
6578
7020
7452
7862
8264
8643
8995
9312
9583
9821
10024
10199
10327
10408
10462
10477
10463
10412
10328
10225
10109
9987
9834
9661
9480
9282
9074
8847
8609
8366
8123
7878
7615
7345
7075
6804
6535
6256
5979
5709
5455
5206
4937
4681
4424
4166
3909
3643
3377
3115
2863
2612
2345
2095
1848
1606
1372
1129
898
677
473
274
71
-115
-294
-461
-622
-783
-930
-1062
-1177
-1291
-1407
-1505
-1597
-1681
-1765
-1850
-1928
-1993
-2048
-2115
-2181
-2238
-2297
-2352
-2415
-2479
-2537
-2586
-2626
-2677
-2725
-2767
-2806
-2839
-2880
-2918
-2949
-2964
-2973
-2999
-3011
-3019
-3024
-3024
-3031
-3035
-3033
-3019
-3004
-3009
-2999
-2991
-2984
-2977
-2984
-2989
-2989
-2983
-2982
-2992
-2994
-2996
-2997
-3000
-3011
-3017
-3014
-3000
-2994
-2994
-2981
-2969
-2953
-2940
-2932
-2919
-2893
-2857
-2835
-2812
-2781
-2752
-2721
-2699
-2680
-2660
-2633
-2603
-2587
-2572
-2555
-2542
-2526
-2527
-2526
-2522
-2506
-2488
-2489
-2480
-2469
-2456
-2441
-2433
-2422
-2405
-2374
-2341
-2329
-2297
-2266
-2233
-2198
-2174
-2146
-2114
-2074
-2039
-2016
-1987
-1962
-1939
-1922
-1918
-1914
-1904
-1887
-1881
-1883
-1876
-1872
-1864
-1863
-1866
-1864
-1852
-1830
-1822
-1812
-1793
-1774
-1750
-1731
-1712
-1687
-1654
-1615
-1589
-1561
-1532
-1505
-1476
-1463
-1451
-1437
-1413
-1390
-1387
-1377
-1369
-1361
-1354
-1358
-1359
-1357
-1341
-1324
-1328
-1314
-1301
-1286
-1270
-1262
-1248
-1228
-1197
-1170
-1152
-1123
-1095
-1065
-1040
-1026
-1009
-987
-957
-941
-935
-922
-914
-906
-909
-918
-923
-920
-909
-914
-917
-913
-910
-903
-903
-904
-902
-890
-871
-867
-856
-842
-827
-806
-799
-787
-769
-741
-711
-700
-682
-666
-653
-640
-644
-646
-648
-639
-634
-651
-655
-661
-668
-676
-693
-706
-712
-709
-710
-720
-718
-716
-709
-704
-706
-701
-688
-663
-648
-639
-620
-605
-587
-579
-577
-574
-563
-548
-552
-557
-560
-566
-573
-587
-605
-621
-628
-629
-647
-655
-660
-665
-665
-677
-686
-688
-679
-665
-666
-657
-646
-633
-617
-615
-610
-603
-583
-567
-574
-570
-569
-571
-577
-593
-609
-621
-624
-634
-654
-663
-673
-680
-689
-705
-715
-715
-704
-704
-708
-701
-696
-686
-684
-685
-681
-666
-644
-639
-634
-625
-619
-614
-617
-626
-636
-639
-639
-662
-676
-690
-705
-717
-742
-762
-778
-782
-782
-795
-797
-797
-795
-788
-794
-792
-785
-763
-741
-737
-720
-705
-690
-677
-675
-672
-666
-654
-652
-664
-667
-676
-684
-699
-723
-743
-757
-761
-778
-798
-807
-817
-821
-832
-844
-850
-844
-828
-825
-821
-808
-795
-779
-769
-763
-754
-735
-711
-710
-700
-691
-686
-681
-691
-701
-709
-711
-711
-728
-735
-742
-747
-749
-765
-772
-771
-755
-740
-737
-721
-703
-682
-661
-646
-625
-597
-558
-526
-505
-472
-443
-414
-391
-378
-362
-342
-314
-301
-294
-280
-269
-255
-250
-247
-238
-218
-190
-173
-154
-128
-101
-70
-45
-20
9
52
99
126
165
205
244
285
314
342
371
408
443
459
485
506
525
544
545
549
557
577
592
593
605
615
628
639
643
651
666
691
709
717
735
751
770
783
788
797
814
839
849
852
861
865
870
864
852
841
838
838
824
808
796
783
772
750
729
712
709
712
693
687
684
681
681
673
667
667
677
690
685
694
702
709
717
709
703
701
708
708
694
687
676
665
648
623
600
583
576
562
540
530
520
515
505
491
483
486
499
500
501
511
519
531
535
536
541
553
570
574
575
578
578
579
567
554
541
540
542
522
514
507
499
495
482
473
468
476
487
479
487
495
504
515
511
514
522
541
556
559
571
579
587
591
584
579
577
582
575
557
548
536
524
507
483
463
453
453
439
426
423
419
420
414
407
405
412
427
430
434
444
453
465
463
460
458
467
477
464
460
454
444
434
413
392
374
366
359
331
322
311
303
298
283
275
273
282
289
286
294
301
311
318
317
319
328
345
351
346
350
348
347
337
318
300
289
285
264
242
227
210
196
175
152
136
129
130
119
112
110
110
114
107
103
104
119
137
136
145
154
162
169
164
159
154
159
162
140
132
120
107
94
70
49
34
28
19
1
-6
-14
-18
-23
-37
-44
-42
-28
-22
-22
-12
-3
9
14
13
14
23
37
33
26
24
17
10
-6
-27
-47
-61
-68
-90
-107
-120
-133
-140
-160
-176
-185
-181
-173
-181
-178
-174
-168
-160
-163
-163
-158
-141
-125
-132
-125
-123
-122
-122
-134
-144
-151
-152
-159
-177
-187
-198
-208
-221
-243
-259
-266
-262
-267
-277
-275
-273
-267
-267
-269
-266
-252
-228
-219
-208
-190
-175
-157
-146
-140
-132
-119
-101
-103
-100
-98
-98
-97
-111
-124
-133
-131
-127
-139
-142
-144
-143
-140
-148
-151
-148
-130
-112
-114
-99
-86
-72
-58
-52
-44
-30
-9
4
4
13
17
20
17
3
-9
-17
-16
-28
-48
-58
-71
-80
-97
-116
-128
-128
-118
-122
-122
-115
-106
-94
-85
-78
-67
-46
-20
-12
4
20
34
49
47
46
47
55
63
52
48
42
34
28
7
-8
-19
-16
-14
-29
-28
-27
-23
-20
-22
-20
-12
6
19
22
37
50
65
77
79
85
97
117
124
123
130
133
137
130
119
110
110
118
111
104
102
99
99
94
87
84
92
105
100
107
116
125
138
138
142
152
171
192
196
209
219
228
237
229
225
223
232
237
223
219
212
206
197
179
165
156
159
155
143
144
144
147
148
143
143
152
172
181
187
202
215
231
237
238
242
254
271
270
268
269
267
265
254
241
230
229
234
217
212
209
207
208
199
192
191
199
210
206
213
220
230
243
241
245
254
274
290
288
297
302
306
305
294
283
276
276
268
248
238
226
214
198
175
157
149
150
141
129
126
121
121
113
104
100
106
119
121
123
129
133
138
133
124
116
118
121
100
90
78
65
53
29
7
-12
-20
-25
-47
-56
-64
-70
-71
-86
-94
-94
-82
-72
-72
-62
-53
-40
-30
-28
-23
-14
2
9
3
6
3
0
-10
-31
-50
-62
-67
-85
-106
-118
-131
-139
-154
-170
-180
-180
-171
-173
-174
-168
-161
-149
-146
-141
-131
-109
-82
-79
-67
-55
-45
-36
-39
-44
-48
-45
-42
-62
-69
-80
-91
-101
-126
-145
-158
-160
-164
-177
-180
-182
-180
-179
-184
-183
-174
-154
-140
-135
-118
-103
-88
-79
-79
-78
-71
-58
-62
-72
-77
-88
-98
-119
-144
-165
-179
-185
-203
-220
-229
-237
-239
-251
-260
-264
-253
-237
-241
-231
-220
-209
-195
-191
-186
-178
-160
-143
-149
-141
-138
-136
-136
-152
-165
-176
-179
-188
-208
-218
-231
-240
-252
-270
-283
-287
-280
-279
-286
-280
-274
-263
-256
-254
-246
-227
-199
-186
-173
-154
-138
-122
-116
-116
-115
-109
-100
-105
-111
-116
-124
-129
-147
-164
-177
-176
-171
-183
-183
-180
-175
-167
-166
-162
-153
-131
-109
-106
-87
-69
-51
-34
-29
-21
-9
9
21
21
28
30
31
28
14
2
-3
2
-2
-14
-15
-18
-16
-18
-24
-24
-12
9
15
22
37
49
65
74
81
90
106
126
131
137
143
146
149
134
118
104
101
98
75
62
49
37
27
7
-9
-20
-16
-10
-24
-21
-18
-13
-7
-10
-7
1
19
33
38
52
65
79
87
85
85
90
102
103
94
94
90
86
75
59
47
45
51
43
37
40
42
48
50
50
53
65
84
89
98
111
124
141
143
149
158
177
197
198
206
214
221
228
221
216
213
222
231
219
224
226
230
234
230
231
237
252
262
261
270
277
286
292
289
291
300
319
326
327
336
341
348
344
334
325
323
327
312
296
285
272
261
242
220
200
188
183
162
149
140
131
128
112
100
94
100
111
106
111
117
125
136
132
131
134
149
161
150
152
149
145
137
119
102
89
85
74
53
43
31
21
9
-11
-25
-30
-25
-29
-38
-36
-36
-32
-36
-43
-46
-38
-24
-26
-27
-25
-26
-28
-40
-60
-82
-100
-119
-164
-205
-250
-302
-354
-423
-491
-556
-611
-662
-726
-779
-826
-866
-898
-937
-966
-988
-992
-994
-1011
-1011
-1011
-1009
-1006
-1006
-1000
-984
-956
-931
-913
-878
-842
-801
-759
-720
-670
-606
-524
-445
-362
-257
-139
-2
143
298
471
666
880
1091
1315
1562
1826
2113
2414
2734
3077
3449
3843
4229
4638
5056
5481
5914
6335
6755
7171
7581
7972
8322
8651
8947
9207
9432
9606
9752
9869
9965
10027
10041
10040
10012
9965
9895
9801
9696
9581
9461
9317
9145
8968
8776
8573
8354
8115
7867
7615
7360
7082
6792
6506
6216
5930
5635
5337
5045
4764
4490
4204
3920
3643
3368
3097
2823
2551
2287
2039
1802
1551
1319
1096
880
673
462
259
66
-113
-284
-467
-632
-791
-944
-1087
-1240
-1380
-1508
-1616
-1721
-1833
-1928
-2017
-2096
-2171
-2245
-2310
-2362
-2399
-2439
-2484
-2512
-2539
-2559
-2580
-2606
-2625
-2634
-2632
-2643
-2657
-2664
-2672
-2678
-2693
-2713
-2728
-2735
-2736
-2750
-2764
-2772
-2780
-2786
-2798
-2809
-2812
-2801
-2783
-2784
-2772
-2756
-2739
-2719
-2706
-2691
-2671
-2641
-2607
-2591
-2563
-2537
-2511
-2486
-2479
-2469
-2457
-2438
-2426
-2430
-2428
-2430
-2432
-2438
-2452
-2463
-2467
-2461
-2461
-2470
-2465
-2461
-2453
-2448
-2448
-2442
-2425
-2398
-2384
-2370
-2347
-2326
-2300
-2283
-2269
-2251
-2226
-2196
-2180
-2167
-2152
-2140
-2127
-2127
-2129
-2128
-2115
-2097
-2102
-2093
-2084
-2074
-2061
-2056
-2048
-2035
-2010
-1983
-1974
-1949
-1924
-1899
-1871
-1857
-1837
-1811
-1776
-1745
-1726
-1700
-1678
-1655
-1638
-1633
-1625
-1614
-1596
-1588
-1592
-1586
-1583
-1578
-1579
-1586
-1587
-1579
-1559
-1553
-1547
-1532
-1518
-1498
-1487
-1477
-1461
-1436
-1404
-1384
-1362
-1337
-1312
-1285
-1273
-1261
-1249
-1226
-1202
-1203
-1196
-1191
-1188
-1186
-1195
-1204
-1210
-1204
-1198
-1212
-1209
-1206
-1201
-1193
-1196
-1192
-1181
-1159
-1139
-1128
-1107
-1086
-1062
-1041
-1030
-1014
-993
-964
-946
-939
-922
-911
-900
-899
-906
-912
-911
-904
-913
-923
-926
-931
-933
-942
-952
-955
-949
-935
-931
-926
-915
-904
-887
-884
-879
-869
-847
-823
-818
-805
-793
-783
-774
-778
-783
-787
-782
-780
-802
-811
-823
-835
-847
-870
-889
-900
-902
-906
-917
-918
-918
-914
-912
-918
-918
-910
-891
-881
-879
-867
-857
-844
-839
-840
-839
-831
-817
-821
-828
-830
-836
-842
-858
-878
-897
-908
-913
-932
-946
-957
-967
-971
-988
-1001
-1008
-1002
-992
-999
-997
-995
-991
-985
-990
-992
-990
-976
-963
-974
-970
-969
-970
-973
-988
-1001
-1011
-1013
-1023
-1044
-1056
-1071
-1084
-1100
-1125
-1144
-1154
-1153
-1161
-1174
-1175
-1178
-1175
-1179
-1187
-1190
-1182
-1165
-1164
-1160
-1150
-1141
-1130
-1126
-1127
-1125
-1118
-1106
-1113
-1116
-1118
-1123
-1126
-1145
-1162
-1174
-1176
-1175
-1189
-1194
-1198
-1198
-1197
-1205
-1208
-1204
-1184
-1162
-1159
-1137
-1115
-1089
-1064
-1044
-1021
-992
-956
-926
-909
-882
-861
-840
-826
-823
-817
-806
-788
-781
-782
-774
-767
-757
-754
-753
-747
-729
-701
-686
-669
-643
-617
-588
-563
-540
-512
-475
-432
-407
-374
-340
-309
-276
-259
-240
-219
-191
-162
-152
-136
-121
-106
-90
-88
-82
-71
-46
-22
-16
6
27
50
73
88
107
131
163
189
204
230
253
277
297
308
321
340
367
381
387
400
409
420
422
417
417
427
445
449
454
467
480
497
510
522
537
564
596
610
636
664
692
724
742
764
790
825
861
879
905
928
950
971
974
979
986
1004
1016
1008
1012
1013
1014
1012
1003
996
994
1002
1003
995
998
999
1004
1005
999
998
1007
1026
1034
1038
1051
1061
1073
1074
1070
1068
1074
1085
1078
1069
1061
1050
1038
1018
994
973
961
956
929
915
903
891
884
866
851
841
842
846
835
834
834
835
840
829
823
822
831
835
822
818
811
802
788
765
742
722
710
691
661
643
623
606
586
559
539
528
527
515
500
496
490
489
480
469
465
470
483
482
480
483
484
486
478
467
456
455
456
431
416
400
383
367
340
314
294
283
276
254
244
236
230
228
212
204
205
218
229
228
237
246
258
266
265
266
270
281
283
271
269
261
254
239
214
193
179
175
157
136
126
114
108
94
77
66
66
74
72
71
76
83
94
96
99
106
125
147
145
153
160
164
167
158
147
137
134
130
105
94
81
69
59
36
20
11
15
16
8
12
15
23
31
33
40
55
82
100
110
131
150
170
182
185
191
202
219
218
213
213
208
203
188
170
155
147
147
135
125
122
119
121
114
109
109
124
143
141
151
164
176
190
194
199
205
220
232
221
223
221
216
211
190
174
161
157
148
129
120
110
104
98
86
80
83
97
104
102
112
121
134
142
144
150
166
190
199
206
218
227
236
235
228
223
222
226
215
205
197
189
184
167
153
142
147
157
148
151
158
166
177
181
188
201
226
253
261
285
307
328
348
354
362
373
391
402
400
405
405
405
400
384
371
364
367
359
342
338
332
328
319
304
294
294
303
297
291
292
291
293
287
278
272
272
277
267
257
249
239
231
206
180
157
144
132
101
79
60
41
26
3
-16
-30
-28
-25
-42
-40
-38
-34
-29
-33
-33
-26
-10
2
3
13
19
25
26
14
4
0
2
-7
-27
-39
-54
-68
-89
-115
-136
-145
-145
-158
-170
-173
-176
-175
-179
-186
-188
-182
-168
-168
-164
-156
-149
-138
-143
-147
-147
-138
-128
-138
-141
-145
-152
-159
-179
-197
-213
-217
-220
-244
-250
-257
-262
-266
-277
-282
-282
-271
-266
-270
-263
-257
-249
-244
-247
-244
-234
-214
-205
-204
-194
-188
-181
-183
-192
-199
-198
-192
-203
-214
-221
-230
-238
-252
-269
-282
-286
-284
-297
-302
-305
-307
-305
-315
-322
-322
-310
-294
-293
-283
-272
-260
-247
-248
-246
-242
-226
-213
-224
-220
-222
-224
-231
-247
-260
-269
-269
-274
-290
-294
-299
-299
-302
-311
-315
-309
-291
-282
-277
-260
-244
-222
-206
-193
-176
-148
-114
-98
-81
-61
-45
-29
-21
-20
-19
-13
-3
-14
-18
-21
-26
-27
-42
-54
-61
-57
-50
-58
-56
-53
-48
-39
-43
-42
-34
-12
10
13
31
45
60
71
73
76
81
93
96
86
84
77
70
58
37
20
10
10
-1
-16
-22
-28
-29
-37
-48
-53
-45
-30
-27
-22
-10
2
18
26
32
38
53
71
67
71
75
76
78
66
53
42
40
39
22
14
6
-1
-4
-21
-32
-35
-24
-13
-18
-9
0
12
23
29
39
55
81
98
104
120
132
144
148
142
138
138
146
138
125
118
109
103
88
69
55
53
60
55
51
54
58
66
68
70
76
95
121
125
142
159
175
193
197
201
207
219
230
223
223
221
218
217
199
187
181
189
193
184
187
191
198
204
204
209
221
243
259
265
283
299
318
332
338
347
362
383
387
385
387
384
380
363
340
318
304
295
272
249
232
215
201
180
160
145
143
149
133
132
134
137
143
140
140
143
157
172
169
178
184
188
193
180
170
164
166
162
143
131
115
101
83
58
37
22
19
8
-10
-16
-23
-26
-33
-45
-51
-48
-35
-36
-38
-31
-27
-20
-23
-30
-35
-32
-25
-32
-42
-49
-60
-70
-93
-116
-139
-148
-155
-184
-200
-215
-229
-240
-259
-276
-287
-288
-285
-299
-297
-294
-289
-280
-284
-282
-272
-253
-239
-238
-229
-224
-219
-219
-230
-239
-245
-244
-252
-273
-284
-298
-311
-329
-353
-371
-379
-375
-384
-393
-392
-392
-387
-390
-393
-390
-378
-358
-348
-338
-322
-308
-291
-289
-286
-283
-269
-254
-263
-262
-263
-266
-270
-283
-296
-307
-307
-309
-333
-343
-358
-376
-396
-432
-467
-500
-526
-558
-602
-637
-673
-705
-737
-776
-807
-828
-837
-853
-878
-891
-907
-919
-939
-965
-986
-999
-1001
-1015
-1025
-1024
-1019
-1003
-988
-968
-935
-886
-823
-765
-699
-619
-529
-423
-317
-193
-49
123
311
490
688
895
1110
1339
1571
1821
2092
2392
2712
3030
3385
3754
4139
4541
4942
5359
5789
6234
6675
7101
7528
7939
8331
8694
9015
9304
9562
9792
9976
10116
10234
10315
10366
10379
10358
10315
10258
10188
10085
9965
9834
9682
9513
9319
9107
8886
8662
8435
8181
7921
7655
7382
7110
6821
6537
6258
5995
5738
5463
5199
4934
4670
4407
4134
3864
3598
3345
3092
2818
2562
2305
2050
1797
1538
1287
1045
817
589
357
144
-64
-260
-449
-637
-809
-965
-1101
-1236
-1370
-1484
-1591
-1688
-1782
-1875
-1956
-2021
-2072
-2133
-2188
-2234
-2278
-2317
-2362
-2409
-2452
-2488
-2519
-2564
-2605
-2643
-2681
-2715
-2761
-2803
-2840
-2863
-2882
-2914
-2935
-2952
-2966
-2974
-2991
-3003
-3007
-2995
-2982
-2988
-2975
-2964
-2950
-2938
-2934
-2928
-2918
-2901
-2892
-2895
-2890
-2889
-2890
-2896
-2912
-2925
-2931
-2927
-2933
-2944
-2943
-2942
-2936
-2933
-2932
-2925
-2906
-2877
-2862
-2843
-2816
-2790
-2759
-2733
-2710
-2682
-2647
-2605
-2583
-2554
-2526
-2501
-2475
-2466
-2457
-2447
-2429
-2411
-2411
-2404
-2398
-2392
-2383
-2388
-2387
-2381
-2360
-2339
-2338
-2320
-2302
-2283
-2263
-2251
-2234
-2212
-2180
-2153
-2136
-2108
-2082
-2053
-2028
-2015
-1998
-1975
-1944
-1927
-1918
-1902
-1889
-1876
-1871
-1872
-1869
-1855
-1833
-1826
-1818
-1802
-1786
-1765
-1749
-1735
-1716
-1687
-1651
-1634
-1607
-1579
-1550
-1518
-1498
-1476
-1448
-1412
-1375
-1356
-1331
-1308
-1289
-1270
-1268
-1265
-1260
-1243
-1231
-1239
-1233
-1230
-1226
-1224
-1229
-1229
-1222
-1206
-1196
-1195
-1183
-1172
-1158
-1147
-1143
-1132
-1112
-1080
-1059
-1041
-1013
-988
-962
-945
-935
-922
-902
-877
-869
-864
-856
-852
-848
-852
-860
-865
-860
-849
-860
-858
-854
-850
-843
-846
-846
-841
-825
-806
-803
-789
-774
-757
-737
-733
-723
-709
-685
-665
-664
-654
-647
-643
-643
-654
-663
-669
-666
-671
-687
-692
-699
-703
-710
-724
-732
-732
-722
-723
-729
-725
-722
-716
-718
-721
-720
-708
-689
-683
-679
-672
-668
-664
-669
-679
-689
-691
-691
-714
-728
-741
-757
-770
-795
-819
-837
-845
-849
-868
-873
-877
-879
-878
-890
-894
-892
-876
-862
-860
-847
-834
-820
-810
-810
-807
-801
-788
-786
-796
-798
-805
-812
-827
-851
-871
-883
-887
-904
-923
-934
-945
-950
-964
-978
-986
-983
-971
-970
-967
-958
-947
-933
-925
-918
-908
-887
-862
-862
-850
-840
-833
-827
-833
-841
-849
-850
-851
-871
-879
-888
-896
-901
-920
-932
-938
-930
-923
-928
-921
-913
-900
-887
-881
-868
-849
-818
-795
-782
-758
-738
-718
-707
-705
-703
-696
-684
-691
-702
-709
-720
-730
-749
-771
-789
-799
-802
-815
-827
-833
-837
-836
-843
-847
-846
-829
-806
-803
-788
-770
-754
-735
-728
-720
-711
-695
-680
-688
-683
-683
-685
-687
-705
-719
-728
-726
-727
-739
-739
-739
-735
-729
-730
-723
-708
-681
-659
-645
-619
-593
-565
-541
-523
-499
-467
-426
-400
-376
-347
-321
-294
-277
-264
-250
-229
-202
-189
-176
-160
-143
-123
-115
-104
-89
-58
-23
-7
20
49
79
112
136
163
195
240
286
312
354
394
433
471
495
521
550
585
614
630
651
668
684
694
693
695
702
718
724
721
729
735
743
746
744
747
762
785
794
803
820
835
852
862
868
876
891
909
914
918
922
923
925
911
896
881
876
873
850
837
824
812
801
781
765
754
757
761
746
749
751
756
763
759
761
770
788
803
808
821
830
840
845
838
834
834
841
837
822
816
807
800
786
766
751
747
753
745
739
742
745
753
755
755
759
772
793
800
812
827
842
860
861
864
868
882
895
888
886
883
876
869
848
827
809
804
797
769
757
744
733
723
705
692
686
691
692
684
688
690
694
695
688
686
691
705
707
700
700
695
691
677
656
636
623
618
595
571
554
535
519
496
471
451
439
436
418
409
404
400
402
390
382
379
388
401
397
403
409
415
421
413
407
403
410
413
392
384
372
358
341
315
292
274
266
253
230
220
209
203
196
182
175
178
192
197
196
206
216
229
235
236
241
255
275
278
279
284
284
283
274
259
246
240
239
220
208
200
191
187
170
159
153
160
170
167
174
182
194
209
210
217
229
254
277
280
296
308
319
325
320
316
315
320
317
300
293
281
272
258
236
218
207
206
194
178
172
164
159
147
131
121
121
128
121
115
116
115
117
111
101
91
90
92
73
61
49
33
19
-10
-37
-61
-75
-86
-112
-127
-139
-149
-154
-172
-182
-186
-175
-166
-172
-165
-160
-152
-147
-149
-148
-143
-129
-124
-131
-128
-130
-131
-138
-157
-172
-181
-183
-198
-218
-228
-240
-248
-263
-282
-294
-294
-286
-290
-293
-288
-284
-276
-275
-276
-273
-258
-237
-237
-226
-215
-207
-197
-200
-203
-204
-198
-192
-205
-210
-218
-228
-236
-261
-279
-291
-290
-291
-306
-309
-311
-309
-309
-314
-314
-306
-288
-276
-272
-256
-241
-223
-209
-204
-195
-179
-156
-147
-143
-133
-127
-120
-125
-135
-142
-142
-135
-142
-149
-151
-153
-152
-157
-164
-166
-155
-138
-141
-132
-119
-107
-90
-83
-73
-57
-32
-5
5
26
44
61
79
80
84
92
109
122
118
123
126
130
132
125
123
127
143
152
151
164
176
192
203
208
219
238
267
283
296
317
335
356
365
370
377
390
407
409
408
409
406
403
388
370
354
349
349
326
317
308
301
297
285
276
272
279
290
283
291
298
308
319
317
319
327
344
356
353
357
356
355
348
329
312
298
291
275
248
233
216
202
183
159
141
135
139
133
126
130
133
141
141
139
143
155
175
182
189
199
208
217
212
205
199
202
206
185
174
162
147
134
110
88
69
60
54
30
24
18
16
17
7
4
8
23
36
40
52
63
77
87
88
92
99
114
118
110
111
105
100
86
65
46
35
34
18
2
-5
-13
-16
-26
-37
-42
-37
-24
-22
-17
-8
3
17
18
23
32
54
79
82
94
105
113
121
116
111
106
111
114
93
87
80
71
64
43
28
17
16
10
-5
-10
-15
-17
-21
-34
-41
-42
-32
-31
-38
-34
-31
-26
-28
-38
-45
-45
-39
-50
-65
-75
-89
-103
-127
-155
-180
-199
-211
-235
-256
-273
-288
-297
-319
-336
-347
-344
-336
-346
-344
-341
-336
-327
-328
-326
-320
-302
-286
-293
-284
-280
-278
-278
-291
-303
-311
-313
-321
-340
-350
-362
-372
-384
-404
-417
-422
-414
-416
-422
-417
-412
-403
-399
-399
-394
-377
-352
-343
-333
-318
-305
-292
-288
-290
-290
-286
-278
-288
-296
-303
-311
-315
-334
-350
-362
-361
-356
-367
-367
-365
-361
-353
-354
-351
-342
-320
-296
-293
-272
-254
-234
-217
-209
-200
-188
-170
-159
-162
-157
-156
-156
-160
-174
-185
-190
-184
-188
-197
-195
-194
-189
-189
-193
-191
-178
-156
-150
-141
-124
-109
-91
-78
-68
-55
-34
-7
1
15
29
40
52
49
45
44
52
61
52
50
48
47
49
39
33
33
49
65
62
77
91
108
124
134
148
167
196
219
231
254
273
293
308
313
320
332
352
358
356
362
364
367
361
349
341
344
354
349
346
350
354
362
364
364
369
383
403
405
416
429
441
456
459
463
471
487
504
504
510
514
518
521
508
498
491
495
496
478
473
466
460
453
439
430
427
434
435
427
431
433
437
437
430
428
434
451
456
456
464
469
476
473
464
458
459
465
454
441
433
421
409
391
369
349
339
335
311
299
289
279
273
257
244
237
241
248
241
245
251
259
269
265
265
269
284
296
287
289
287
283
275
257
241
228
224
212
189
177
162
150
134
111
94
86
89
81
71
71
70
75
73
69
70
82
102
109
115
125
133
142
141
136
132
137
146
130
126
121
116
112
96
81
71
70
72
58
55
53
53
57
46
42
43
58
71
69
78
85
92
95
88
82
79
82
75
54
41
24
7
-16
-48
-75
-95
-107
-130
-156
-173
-190
-201
-221
-241
-255
-258
-252
-257
-261
-257
-252
-244
-242
-240
-236
-220
-202
-207
-202
-199
-198
-199
-211
-225
-238
-243
-248
-271
-283
-296
-308
-318
-342
-360
-370
-367
-366
-375
-373
-371
-364
-359
-359
-355
-342
-318
-302
-295
-278
-265
-252
-246
-250
-253
-251
-242
-250
-263
-272
-283
-293
-311
-332
-347
-353
-349
-355
-359
-358
-355
-347
-348
-347
-342
-323
-300
-297
-280
-262
-244
-224
-217
-214
-212
-205
-205
-232
-254
-285
-324
-369
-434
-498
-559
-610
-666
-729
-780
-828
-867
-901
-937
-963
-979
-980
-984
-993
-988
-983
-973
-964
-957
-942
-915
-875
-846
-813
-769
-724
-673
-628
-585
-533
-471
-398
-331
-255
-164
-60
63
188
329
487
670
870
1060
1275
1508
1759
2031
2315
2623
2957
3323
3707
4086
4493
4909
5335
5768
6190
6613
7034
7450
7843
8199
8533
8832
9095
9317
9492
9635
9748
9837
9882
9887
9874
9836
9776
9692
9585
9469
9350
9226
9074
8906
8734
8550
8361
8154
7935
7710
7482
7250
6996
6737
6476
6212
5949
5671
5396
5123
4863
4606
4328
4062
3796
3532
3271
3004
2742
2488
2250
2018
1771
1548
1331
1122
920
715
522
341
178
17
-147
-296
-442
-580
-716
-857
-988
-1108
-1213
-1323
-1437
-1535
-1631
-1719
-1807
-1897
-1976
-2041
-2091
-2152
-2208
-2252
-2295
-2330
-2369
-2408
-2440
-2461
-2473
-2495
-2511
-2522
-2532
-2537
-2555
-2571
-2582
-2581
-2578
-2593
-2600
-2607
-2615
-2623
-2641
-2657
-2670
-2669
-2668
-2689
-2691
-2694
-2696
-2695
-2703
-2706
-2702
-2689
-2678
-2676
-2662
-2648
-2631
-2616
-2609
-2596
-2576
-2546
-2527
-2517
-2498
-2482
-2466
-2459
-2459
-2458
-2448
-2432
-2434
-2437
-2434
-2434
-2431
-2435
-2441
-2442
-2436
-2422
-2421
-2413
-2401
-2387
-2368
-2361
-2350
-2333
-2304
-2270
-2253
-2226
-2199
-2173
-2146
-2132
-2117
-2101
-2072
-2047
-2046
-2031
-2021
-2012
-2006
-2009
-2009
-2004
-1991
-1982
-1983
-1973
-1964
-1952
-1943
-1941
-1935
-1920
-1894
-1879
-1871
-1852
-1836
-1816
-1804
-1798
-1788
-1769
-1744
-1737
-1730
-1718
-1711
-1703
-1704
-1710
-1715
-1712
-1704
-1713
-1715
-1713
-1712
-1706
-1712
-1715
-1713
-1699
-1682
-1678
-1665
-1650
-1633
-1612
-1603
-1589
-1569
-1536
-1504
-1493
-1469
-1448
-1427
-1409
-1402
-1395
-1386
-1370
-1363
-1369
-1366
-1365
-1363
-1365
-1377
-1383
-1382
-1369
-1366
-1367
-1357
-1348
-1334
-1327
-1322
-1311
-1288
-1257
-1240
-1222
-1197
-1173
-1148
-1130
-1117
-1103
-1082
-1057
-1054
-1045
-1037
-1032
-1026
-1037
-1046
-1053
-1051
-1048
-1059
-1061
-1062
-1061
-1057
-1066
-1068
-1065
-1046
-1028
-1027
-1011
-995
-976
-957
-945
-931
-912
-886
-868
-864
-852
-845
-838
-839
-852
-862
-867
-865
-876
-893
-901
-911
-917
-932
-949
-959
-957
-945
-944
-942
-932
-922
-908
-899
-892
-881
-859
-832
-826
-811
-796
-784
-772
-775
-779
-781
-777
-774
-789
-797
-807
-818
-826
-850
-867
-879
-876
-874
-886
-884
-882
-876
-871
-871
-865
-854
-832
-816
-811
-793
-779
-762
-752
-751
-748
-740
-725
-725
-730
-728
-731
-733
-746
-764
-778
-783
-780
-790
-800
-804
-807
-807
-813
-819
-822
-812
-796
-801
-793
-783
-773
-759
-756
-751
-741
-723
-703
-700
-687
-677
-667
-656
-663
-666
-665
-654
-648
-657
-657
-658
-657
-658
-667
-671
-670
-656
-650
-652
-641
-632
-618
-609
-607
-599
-583
-557
-544
-534
-515
-498
-479
-471
-468
-462
-449
-431
-430
-431
-429
-430
-430
-442
-454
-463
-460
-453
-467
-468
-467
-465
-460
-464
-465
-462
-447
-430
-428
-413
-397
-378
-357
-350
-338
-319
-290
-266
-255
-237
-223
-209
-200
-200
-199
-194
-180
-174
-179
-172
-168
-160
-157
-159
-155
-142
-118
-106
-94
-73
-53
-28
-10
6
28
60
100
129
158
191
223
258
280
301
324
359
395
408
430
451
471
492
503
514
529
555
584
593
619
644
670
698
714
736
764
803
838
864
898
931
965
995
1015
1036
1061
1092
1111
1116
1129
1134
1139
1134
1120
1107
1102
1104
1089
1073
1064
1053
1045
1029
1012
999
995
999
993
988
989
990
995
990
986
986
999
1015
1008
1010
1010
1007
1003
986
968
949
938
924
886
862
834
805
776
735
698
669
650
628
598
579
561
546
532
512
499
494
502
501
493
498
500
505
502
491
484
484
489
477
462
452
438
424
400
372
348
332
322
301
282
269
256
249
229
214
206
212
224
218
224
231
240
251
252
254
259
275
289
279
284
284
282
277
259
243
231
225
214
192
180
165
154
140
119
105
99
106
104
96
101
105
113
115
114
117
131
154
161
167
179
186
195
194
187
181
180
183
170
158
147
134
126
103
83
68
66
68
56
53
53
55
61
58
59
65
85
106
107
125
142
160
176
181
188
198
214
223
218
221
217
214
204
182
164
153
151
139
120
112
104
100
91
79
72
78
93
95
99
110
120
134
143
150
161
179
202
208
217
227
232
239
227
215
205
203
201
181
168
155
143
134
112
96
85
89
94
79
83
88
95
103
104
110
121
142
158
163
178
190
202
208
203
200
202
210
205
191
184
173
163
145
121
104
97
99
87
78
77
76
78
77
74
76
88
106
107
116
128
139
154
154
157
163
178
193
190
193
194
193
192
176
162
150
152
151
130
124
116
109
102
88
79
75
81
81
71
74
75
80
83
78
80
89
109
117
119
131
140
152
153
151
151
160
174
171
166
165
162
159
151
138
128
127
133
