5743
6038
6323
6574
6798
7007
7203
7391
7566
7718
7872
8021
8186
8310
8431
8533
8623
8697
8745
8762
8766
8750
8727
8656
8574
8468
8353
8226
8077
7903
7733
7556
7381
7171
6957
6731
6502
6266
6016
5758
5507
5263
5024
4764
4516
4269
4033
3801
3561
3325
3098
2889
2677
2459
2251
2051
1864
1679
1486
1302
1127
972
813
651
497
352
216
83
-60
-189
-313
-407
-529
-634
-737
-826
-905
-983
-1066
-1135
-1198
-1238
-1304
-1353
-1404
-1443
-1475
-1512
-1557
-1586
-1610
-1619
-1649
-1670
-1693
-1708
-1722
-1744
-1770
-1788
-1798
-1804
-1832
-1850
-1871
-1883
-1895
-1918
-1941
-1956
-1955
-1963
-1980
-1991
-1999
-1999
-2002
-2018
-2030
-2040
-2036
-2041
-2052
-2062
-2068
-2069
-2074
-2095
-2104
-2114
-2100
-2119
-2129
-2142
-2150
-2154
-2163
-2182
-2194
-2204
-2195
-2218
-2227
-2240
-2243
-2239
-2241
-2252
-2249
-2241
-2222
-2222
-2214
-2207
-2192
-2176
-2170
-2167
-2155
-2135
-2111
-2108
-2096
-2086
-2069
-2054
-2052
-2051
-2047
-2028
-2022
-2026
-2025
-2023
-2014
-2007
-2011
-2010
-2004
-1983
-1972
-1964
-1954
-1939
-1919
-1903
-1904
-1892
-1881
-1846
-1843
-1832
-1823
-1809
-1792
-1782
-1782
-1775
-1770
-1744
-1757
-1756
-1762
-1760
-1757
-1763
-1777
-1782
-1783
-1775
-1784
-1784
-1784
-1775
-1763
-1759
-1757
-1746
-1726
-1704
-1701
-1689
-1678
-1660
-1643
-1640
-1637
-1628
-1605
-1595
-1595
-1592
-1590
-1583
-1581
-1590
-1599
-1604
-1597
-1601
-1608
-1614
-1615
-1609
-1607
-1619
-1616
-1613
-1584
-1581
-1570
-1561
-1545
-1526
-1511
-1509
-1496
-1484
-1451
-1456
-1445
-1440
-1426
-1412
-1407
-1411
-1410
-1407
-1400
-1414
-1422
-1432
-1435
-1435
-1445
-1457
-1460
-1451
-1440
-1446
-1442
-1435
-1418
-1400
-1395
-1387
-1374
-1345
-1331
-1325
-1318
-1309
-1296
-1285
-1286
-1285
-1282
-1267
-1270
-1275
-1285
-1292
-1295
-1305
-1331
-1344
-1356
-1346
-1361
-1368
-1375
-1374
-1368
-1366
-1376
-1371
-1363
-1332
-1336
-1325
-1318
-1303
-1287
-1282
-1283
-1279
-1271
-1259
-1268
-1269
-1275
-1275
-1276
-1291
-1311
-1324
-1328
-1334
-1356
-1368
-1378
-1376
-1373
-1380
-1380
-1372
-1345
-1331
-1320
-1303
-1283
-1257
-1232
-1216
-1198
-1178
-1142
-1127
-1112
-1100
-1082
-1059
-1043
-1042
-1030
-1018
-988
-983
-973
-967
-957
-944
-937
-943
-933
-922
-888
-888
-872
-859
-837
-813
-795
-783
-765
-741
-713
-707
-693
-683
-668
-656
-658
-665
-667
-660
-656
-670
-677
-685
-686
-689
-706
-719
-728
-718
-720
-725
-725
-720
-706
-691
-683
-671
-655
-620
-607
-590
-577
-557
-533
-516
-514
-502
-493
-468
-468
-464
-463
-456
-447
-446
-458
-456
-453
-431
-442
-442
-444
-438
-431
-431
-434
-428
-414
-393
-392
-380
-369
-348
-328
-319
-312
-299
-273
-252
-247
-235
-225
-210
-197
-201
-201
-199
-181
-177
-180
-179
-176
-168
-160
-163
-161
-156
-127
-125
-112
-100
-77
-47
-20
-2
26
57
103
126
155
180
212
247
274
286
312
338
381
392
411
427
449
471
485
494
509
532
560
566
583
599
623
649
666
682
708
747
783
807
836
866
902
934
951
971
992
1027
1046
1057
1069
1081
1096
1106
1102
1102
1101
1121
1109
1105
1097
1096
1100
1100
1090
1090
1091
1110
1106
1113
1117
1130
1148
1159
1156
1167
1179
1204
1202
1207
1205
1208
1210
1200
1185
1176
1173
1172
1149
1135
1116
1103
1090
1064
1036
1015
1009
998
977
962
951
950
948
934
928
927
943
950
949
951
954
961
964
951
944
934
948
928
916
901
891
884
871
847
829
812
811
782
764
742
730
724
710
686
678
675
685
675
673
672
680
688
687
682
684
692
703
690
685
676
673
668
651
631
617
615
604
581
562
543
532
518
492
471
457
459
454
443
438
436
442
445
436
438
440
466
459
461
459
461
465
462
446
436
425
433
409
398
382
374
369
354
329
316
307
309
293
288
283
288
297
299
298
307
326
349
353
368
381
403
424
432
439
451
474
486
486
488
492
502
508
500
497
496
507
508
501
495
492
495
496
482
483
485
513
513
522
530
544
563
577
580
592
603
633
628
635
635
643
652
650
638
635
635
644
632
627
621
622
623
614
600
596
600
608
597
596
596
607
619
619
621
630
654
665
667
672
679
692
701
698
696
695
705
703
694
684
677
674
666
641
628
615
625
605
592
578
572
569
563
547
543
542
564
550
554
553
560
569
569
561
561
566
576
566
563
556
556
555
544
527
517
516
514
492
476
458
449
437
412
390
374
376
366
353
344
341
345
349
344
342
343
356
355
350
343
340
341
336
314
303
290
297
275
258
237
221
206
186
153
133
113
115
82
66
47
39
36
28
15
12
17
31
27
32
34
44
52
50
42
41
48
53
39
31
22
18
12
-10
-30
-46
-47
-62
-84
-103
-118
-126
-135
-151
-164
-171
-161
-165
-166
-166
-159
-144
-134
-141
-135
-131
-109
-114
-115
-121
-123
-124
-131
-152
-161
-170
-159
-186
-199
-216
-225
-234
-250
-270
-281
-285
-281
-295
-300
-305
-301
-295
-298
-302
-296
-278
-261
-263
-257
-253
-242
-235
-244
-250
-252
-237
-238
-246
-250
-253
-252
-254
-267
-280
-291
-285
-300
-311
-321
-323
-317
-315
-325
-322
-317
-293
-291
-282
-275
-262
-246
-238
-244
-238
-232
-208
-221
-221
-226
-226
-226
-235
-249
-258
-260
-257
-277
-288
-302
-307
-312
-326
-340
-344
-334
-323
-325
-317
-307
-288
-268
-261
-249
-232
-198
-178
-165
-149
-133
-114
-98
-94
-89
-83
-58
-59
-56
-57
-52
-44
-44
-59
-64
-69
-57
-66
-67
-69
-63
-51
-44
-51
-41
-30
2
3
16
26
42
58
67
70
77
88
102
92
90
85
87
89
78
64
57
61
59
43
33
25
25
25
13
7
8
28
37
40
48
59
76
90
92
97
103
130
126
129
127
131
136
134
119
111
103
111
96
88
77
73
73
66
45
41
40
59
51
57
62
77
93
102
108
123
144
170
173
185
195
212
226
228
226
229
243
250
242
240
238
244
248
236
229
225
236
234
225
220
218
222
225
217
219
223
250
246
250
249
251
253
245
220
197
168
148
95
45
-15
-72
-129
-196
-279
-346
-412
-462
-534
-596
-657
-711
-763
-823
-886
-940
-986
-1025
-1083
-1129
-1174
-1209
-1243
-1289
-1336
-1376
-1403
-1437
-1482
-1521
-1557
-1585
-1612
-1650
-1678
-1695
-1688
-1681
-1671
-1647
-1611
-1560
-1501
-1445
-1365
-1270
-1131
-1002
-839
-651
-430
-178
95
382
701
1045
1432
1813
2224
2642
3074
3510
3928
4322
4710
5080
5438
5747
6039
6306
6556
6784
6981
7154
7319
7476
7624
7741
7857
7964
8068
8157
8217
8258
8289
8315
8316
8288
8248
8190
8123
8035
7918
7791
7652
7515
7355
7178
6993
6801
6603
6393
6158
5927
5689
5470
5213
4960
4700
4442
4187
3926
3657
3398
3144
2911
2652
2411
2171
1945
1730
1512
1292
1091
902
729
543
371
203
48
-101
-253
-403
-539
-660
-774
-902
-1016
-1128
-1228
-1327
-1436
-1542
-1639
-1718
-1803
-1893
-1974
-2048
-2109
-2168
-2232
-2288
-2337
-2366
-2400
-2434
-2462
-2482
-2493
-2503
-2527
-2537
-2545
-2529
-2543
-2548
-2554
-2555
-2553
-2556
-2570
-2576
-2583
-2572
-2597
-2608
-2626
-2636
-2642
-2657
-2679
-2690
-2693
-2686
-2696
-2696
-2695
-2684
-2668
-2660
-2654
-2637
-2608
-2575
-2560
-2536
-2514
-2483
-2453
-2437
-2421
-2400
-2364
-2340
-2326
-2308
-2290
-2268
-2251
-2247
-2242
-2235
-2215
-2205
-2199
-2190
-2175
-2153
-2133
-2129
-2111
-2092
-2048
-2033
-2009
-1988
-1960
-1927
-1900
-1885
-1860
-1836
-1793
-1788
-1769
-1757
-1738
-1719
-1711
-1711
-1706
-1698
-1686
-1696
-1700
-1706
-1704
-1700
-1706
-1713
-1710
-1695
-1677
-1675
-1663
-1650
-1627
-1604
-1593
-1578
-1558
-1521
-1499
-1485
-1469
-1453
-1433
-1417
-1413
-1409
-1404
-1385
-1382
-1383
-1387
-1388
-1385
-1389
-1410
-1417
-1423
-1408
-1417
-1418
-1419
-1412
-1400
-1392
-1394
-1382
-1369
-1334
-1335
-1319
-1308
-1287
-1266
-1254
-1249
-1238
-1225
-1207
-1211
-1207
-1208
-1201
-1196
-1203
-1216
-1221
-1216
-1214
-1228
-1233
-1237
-1230
-1223
-1225
-1222
-1212
-1182
-1165
-1153
-1136
-1117
-1092
-1069
-1056
-1041
-1026
-995
-984
-973
-967
-958
-945
-941
-955
-957
-962
-949
-961
-968
-977
-981
-981
-986
-1003
-1004
-1002
-975
-981
-969
-958
-936
-911
-893
-880
-861
-836
-806
-798
-782
-770
-753
-737
-735
-738
-735
-723
-715
-726
-731
-738
-738
-740
-756
-769
-778
-768
-772
-780
-783
-782
-774
-765
-763
-757
-746
-716
-709
-699
-693
-683
-668
-662
-672
-673
-676
-664
-676
-685
-699
-707
-714
-730
-761
-779
-798
-796
-827
-844
-863
-873
-880
-893
-908
-913
-910
-899
-908
-906
-904
-894
-885
-887
-894
-896
-887
-884
-898
-907
-917
-921
-928
-951
-971
-989
-991
-1009
-1035
-1058
-1078
-1093
-1109
-1132
-1150
-1163
-1153
-1168
-1173
-1180
-1177
-1167
-1161
-1165
-1159
-1151
-1127
-1128
-1123
-1124
-1120
-1114
-1118
-1136
-1140
-1143
-1128
-1144
-1148
-1155
-1155
-1155
-1163
-1175
-1180
-1177
-1168
-1178
-1177
-1177
-1167
-1157
-1156
-1156
-1146
-1124
-1105
-1099
-1086
-1072
-1050
-1032
-1027
-1019
-1010
-986
-978
-978
-976
-973
-965
-960
-967
-968
-970
-949
-960
-963
-968
-966
-957
-952
-956
-949
-938
-909
-902
-885
-871
-847
-818
-796
-787
-762
-735
-693
-678
-656
-638
-613
-590
-575
-565
-548
-523
-493
-485
-468
-454
-432
-410
-399
-389
-369
-333
-301
-278
-246
-210
-164
-118
-85
-44
2
66
119
165
214
265
320
371
406
447
486
546
572
605
634
668
704
732
748
768
787
821
827
841
851
871
896
914
921
943
968
1009
1026
1053
1077
1107
1137
1158
1173
1196
1223
1252
1257
1268
1274
1286
1294
1289
1281
1278
1287
1288
1275
1267
1259
1258
1254
1238
1228
1222
1233
1235
1234
1236
1244
1257
1270
1269
1278
1284
1314
1310
1313
1311
1314
1318
1314
1298
1287
1274
1279
1251
1235
1213
1200
1190
1171
1142
1127
1115
1117
1099
1091
1083
1086
1091
1090
1086
1092
1107
1127
1126
1133
1139
1151
1160
1156
1150
1147
1157
1156
1142
1131
1121
1116
1108
1085
1066
1050
1048
1036
1018
1002
989
983
974
953
944
938
958
947
947
945
950
959
962
954
953
951
968
950
945
933
929
927
914
891
878
868
867
845
830
813
803
793
775
754
742
740
741
723
717
711
716
722
717
714
717
736
742
738
737
737
743
745
735
728
723
731
727
716
705
696
692
681
653
637
620
627
604
590
573
563
557
546
527
518
511
528
511
512
509
514
522
520
511
510
512
521
510
505
496
495
493
480
462
451
448
445
422
408
393
385
377
357
339
328
334
328
315
308
305
311
315
311
310
312
327
329
326
324
323
326
323
303
295
285
297
279
267
252
240
230
213
183
165
147
152
122
111
95
91
90
84
73
72
77
90
86
91
94
105
117
118
114
116
127
135
122
116
108
107
103
85
68
52
52
37
15
-3
-18
-25
-32
-45
-55
-60
-49
-52
-55
-57
-53
-42
-36
-46
-42
-39
-15
-17
-16
-17
-15
-11
-16
-34
-42
-51
-39
-66
-79
-98
-110
-121
-141
-167
-185
-195
-197
-216
-225
-233
-232
-227
-232
-238
-234
-219
-205
-208
-202
-197
-184
-174
-178
-181
-181
-165
-165
-173
-178
-181
-179
-180
-190
-200
-208
-199
-209
-216
-221
-218
-206
-198
-202
-191
-179
-147
-136
-119
-104
-84
-60
-44
-42
-27
-13
20
17
24
25
33
41
38
30
27
30
37
23
18
10
10
12
4
-5
-3
12
27
29
39
52
74
95
102
113
127
159
175
184
195
205
218
228
226
225
223
239
230
224
214
210
210
204
184
175
168
179
169
166
162
167
178
185
180
191
204
238
239
251
260
275
290
297
297
303
313
327
317
315
308
308
305
290
271
259
258
253
234
222
212
211
209
196
189
188
206
214
217
224
235
251
263
264
266
269
292
285
282
276
275
277
271
252
241
229
233
213
200
184
176
173
163
140
133
129
145
132
132
131
139
150
153
154
162
177
196
192
196
197
203
208
201
190
186
193
193
179
170
161
159
155
136
121
109
115
109
98
91
88
91
94
86
85
86
110
104
108
109
115
126
128
119
116
113
125
112
108
99
97
98
91
70
65
60
69
53
46
38
37
39
33
24
24
32
46
40
44
47
59
72
73
72
77
94
104
100
101
101
107
111
100
93
88
99
97
87
79
71
66
58
36
21
7
19
0
-9
-19
-21
-18
-18
-28
-29
-27
-5
-12
-7
-7
2
15
19
9
12
15
30
22
21
17
21
23
17
3
-3
-2
2
-16
-25
-33
-32
-29
-37
-44
-44
-29
-22
-24
-20
-13
3
16
16
19
26
45
53
51
51
51
55
55
39
32
25
41
23
13
-1
-9
-14
-25
-45
-56
-64
-53
-72
-76
-85
-84
-78
-79
-89
-86
-79
-60
-62
-56
-52
-42
-32
-33
-39
-37
-29
-17
-27
-28
-32
-28
-26
-37
-50
-57
-51
-54
-67
-74
-77
-72
-67
-71
-70
-64
-43
-29
-21
-11
1
19
32
30
39
46
76
73
77
76
80
86
85
72
67
60
73
50
41
26
19
15
3
-17
-26
-28
-20
-29
-28
-28
-17
-5
-2
-3
5
23
44
45
54
61
75
86
82
76
74
85
82
70
60
51
47
39
17
-3
-19
-22
-37
-55
-70
-80
-82
-86
-105
-109
-114
-96
-109
-116
-129
-141
-155
-180
-223
-264
-311
-344
-419
-482
-555
-621
-685
-758
-838
-908
-969
-1021
-1091
-1151
-1211
-1261
-1309
-1365
-1424
-1470
-1502
-1530
-1575
-1610
-1646
-1675
-1705
-1748
-1787
-1820
-1835
-1861
-1891
-1915
-1934
-1941
-1944
-1950
-1944
-1922
-1875
-1830
-1777
-1714
-1634
-1536
-1427
-1315
-1166
-993
-772
-550
-293
-10
305
647
1007
1380
1788
2214
2676
3108
3559
4000
4436
4858
5248
5607
5946
6261
6556
6806
7042
7254
7452
7633
7788
7925
8061
8198
8328
8431
8530
8612
8686
8739
8762
8771
8766
8759
8719
8653
8572
8475
8368
8244
8096
7937
7768
7603
7409
7203
6983
6758
6529
6286
6019
5758
5490
5238
4958
4680
4400
4126
3858
3588
3309
3047
2790
2562
2303
2067
1835
1620
1414
1207
1003
813
635
470
291
126
-36
-184
-325
-472
-616
-747
-862
-975
-1101
-1216
-1328
-1429
-1529
-1638
-1740
-1833
-1903
-1983
-2063
-2134
-2198
-2251
-2300
-2353
-2397
-2433
-2447
-2477
-2500
-2521
-2533
-2537
-2544
-2565
-2572
-2578
-2565
-2573
-2576
-2581
-2579
-2576
-2580
-2601
-2608
-2618
-2606
-2631
-2641
-2654
-2657
-2657
-2664
-2673
-2674
-2667
-2652
-2656
-2647
-2639
-2620
-2600
-2590
-2582
-2565
-2537
-2512
-2502
-2486
-2469
-2445
-2422
-2415
-2405
-2392
-2363
-2352
-2350
-2347
-2343
-2336
-2331
-2335
-2334
-2329
-2301
-2297
-2284
-2271
-2248
-2217
-2189
-2171
-2141
-2109
-2060
-2032
-1999
-1969
-1935
-1898
-1871
-1862
-1839
-1818
-1778
-1773
-1758
-1747
-1731
-1717
-1713
-1716
-1714
-1706
-1693
-1701
-1699
-1698
-1689
-1678
-1676
-1676
-1667
-1644
-1624
-1617
-1604
-1589
-1565
-1542
-1533
-1518
-1501
-1466
-1447
-1437
-1424
-1412
-1397
-1386
-1388
-1387
-1386
-1365
-1376
-1380
-1388
-1389
-1384
-1384
-1395
-1395
-1392
-1370
-1369
-1359
-1352
-1335
-1314
-1300
-1300
-1285
-1269
-1235
-1230
-1215
-1204
-1187
-1171
-1164
-1162
-1155
-1143
-1128
-1135
-1134
-1137
-1133
-1131
-1142
-1155
-1162
-1156
-1156
-1167
-1171
-1171
-1162
-1154
-1159
-1156
-1149
-1126
-1114
-1109
-1102
-1092
-1078
-1066
-1067
-1063
-1060
-1035
-1043
-1045
-1052
-1054
-1054
-1062
-1082
-1096
-1111
-1110
-1135
-1151
-1172
-1185
-1191
-1205
-1229
-1235
-1236
-1221
-1227
-1222
-1217
-1204
-1191
-1185
-1184
-1175
-1159
-1138
-1139
-1131
-1127
-1116
-1108
-1114
-1124
-1129
-1123
-1125
-1142
-1154
-1166
-1171
-1179
-1200
-1216
-1227
-1222
-1226
-1234
-1238
-1237
-1228
-1220
-1224
-1220
-1217
-1189
-1195
-1192
-1192
-1187
-1179
-1177
-1188
-1193
-1198
-1189
-1211
-1224
-1244
-1256
-1266
-1284
-1314
-1330
-1341
-1339
-1358
-1368
-1377
-1378
-1376
-1381
-1389
-1386
-1373
-1354
-1354
-1346
-1339
-1325
-1312
-1314
-1317
-1316
-1302
-1299
-1308
-1313
-1318
-1318
-1322
-1341
-1357
-1372
-1374
-1385
-1403
-1418
-1428
-1430
-1434
-1451
-1454
-1455
-1428
-1432
-1425
-1418
-1403
-1383
-1369
-1365
-1354
-1343
-1315
-1321
-1315
-1317
-1311
-1304
-1305
-1318
-1320
-1321
-1313
-1326
-1334
-1343
-1345
-1347
-1357
-1371
-1373
-1365
-1351
-1356
-1348
-1340
-1322
-1303
-1296
-1287
-1273
-1243
-1225
-1217
-1206
-1194
-1176
-1163
-1162
-1161
-1156
-1139
-1132
-1131
-1129
-1123
-1111
-1104
-1113
-1108
-1103
-1072
-1070
-1057
-1042
-1018
-987
-958
-937
-904
-870
-813
-788
-747
-711
-666
-618
-580
-551
-514
-474
-427
-402
-370
-342
-307
-273
-248
-228
-199
-164
-129
-114
-91
-70
-40
-10
11
35
68
118
158
193
234
278
330
381
421
463
507
564
609
648
686
724
766
801
816
843
867
912
927
948
966
989
1014
1032
1039
1055
1072
1112
1116
1138
1157
1188
1222
1248
1268
1295
1328
1367
1387
1414
1437
1467
1496
1512
1521
1536
1558
1578
1577
1582
1584
1591
1595
1585
1575
1569
1579
1574
1561
1551
1545
1547
1548
1541
1539
1542
1561
1567
1572
1578
1589
1605
1614
1606
1611
1614
1636
1630
1627
1620
1617
1614
1604
1579
1565
1549
1555
1522
1503
1480
1465
1451
1429
1401
1383
1371
1367
1347
1337
1327
1327
1330
1323
1314
1312
1319
1323
1309
1302
1293
1291
1287
1268
1251
1236
1238
1223
1202
1182
1164
1151
1135
1109
1085
1063
1058
1034
1014
992
978
972
962
939
931
925
939
931
928
922
921
922
915
894
886
876
887
860
847
828
817
807
787
761
741
726
717
688
670
650
639
631
614
596
587
592
597
587
587
589
600
610
605
603
604
621
621
615
610
606
606
603
589
577
566
572
555
541
524
513
508
496
470
455
441
445
428
418
406
402
403
398
380
379
379
399
386
384
378
379
380
371
357
350
349
353
335
326
315
311
307
291
271
259
258
253
233
222
213
214
214
202
197
198
218
226
230
239
252
271
289
296
307
318
347
347
352
352
357
365
365
350
342
331
333
308
285
252
220
184
133
61
-1
-68
-120
-208
-289
-376
-459
-542
-632
-726
-810
-884
-949
-1033
-1104
-1176
-1238
-1300
-1373
-1449
-1517
-1572
-1630
-1701
-1764
-1824
-1873
-1921
-1979
-2025
-2054
-2050
-2039
-2014
-1966
-1897
-1805
-1697
-1581
-1440
-1278
-1072
-875
-647
-400
-122
185
511
849
1217
1608
2037
2461
2912
3374
3854
4342
4826
5301
5795
6291
6803
7285
7769
8235
8685
9110
9500
9857
10193
10506
10794
11033
11255
11455
11644
11816
11962
12094
12220
12348
12455
12533
12598
12642
12668
12665
12621
12554
12459
12347
12192
12000
11783
11540
11278
10989
10665
10329
9974
9625
9228
8828
8417
8007
7600
7187
6764
6351
5943
5555
5147
4754
4364
3989
3624
3255
2881
2528
2184
1863
1526
1208
899
607
327
50
-219
-469
-699
-913
-1135
-1336
-1525
-1692
-1847
-2002
-2146
-2273
-2376
-2478
-2585
-2679
-2767
-2843
-2919
-3005
-3082
-3154
-3207
-3269
-3334
-3394
-3449
-3495
-3541
-3597
-3639
-3678
-3687
-3727
-3754
-3781
-3798
-3809
-3821
-3841
-3851
-3857
-3844
-3858
-3858
-3863
-3858
-3850
-3850
-3864
-3867
-3868
-3861
-3875
-3884
-3896
-3902
-3906
-3919
-3937
-3944
-3942
-3936
-3948
-3949
-3948
-3937
-3925
-3924
-3920
-3909
-3883
-3864
-3854
-3838
-3819
-3791
-3764
-3750
-3731
-3709
-3674
-3649
-3634
-3618
-3601
-3581
-3566
-3566
-3555
-3546
-3511
-3507
-3494
-3483
-3464
-3441
-3423
-3414
-3396
-3377
-3338
-3331
-3309
-3291
-3264
-3233
-3210
-3197
-3173
-3144
-3107
-3088
-3062
-3038
-3006
-2976
-2955
-2941
-2919
-2889
-2856
-2845
-2824
-2803
-2774
-2744
-2725
-2706
-2681
-2640
-2610
-2588
-2563
-2536
-2503
-2472
-2452
-2430
-2404
-2366
-2339
-2318
-2298
-2274
-2246
-2222
-2216
-2197
-2179
-2138
-2127
-2108
-2093
-2073
-2049
-2031
-2024
-2007
-1990
-1951
-1948
-1930
-1917
-1896
-1873
-1860
-1856
-1843
-1827
-1803
-1797
-1784
-1772
-1753
-1733
-1722
-1715
-1699
-1672
-1645
-1635
-1617
-1599
-1574
-1550
-1541
-1531
-1517
-1487
-1471
-1463
-1452
-1439
-1419
-1403
-1397
-1392
-1384
-1365
-1360
-1361
-1362
-1361
-1355
-1355
-1371
-1372
-1374
-1353
-1359
-1357
-1357
-1350
-1338
-1330
-1332
-1322
-1311
-1279
-1283
-1272
-1267
-1254
-1240
-1235
-1238
-1234
-1225
-1209
-1214
-1212
-1214
-1210
-1207
-1216
-1231
-1238
-1235
-1232
-1246
-1251
-1255
-1249
-1244
-1251
-1256
-1255
-1235
-1229
-1228
-1224
-1218
-1206
-1197
-1198
-1200
-1199
-1185
-1188
-1193
-1199
-1201
-1198
-1201
-1222
-1232
-1244
-1237
-1256
-1271
-1287
-1296
-1300
-1309
-1329
-1335
-1338
-1318
-1335
-1334
-1337
-1329
-1320
-1319
-1322
-1319
-1309
-1294
-1300
-1299
-1302
-1298
-1295
-1304
-1319
-1326
-1324
-1324
-1342
-1354
-1367
-1373
-1382
-1404
-1423
-1435
-1428
-1435
-1445
-1449
-1449
-1441
-1433
-1431
-1426
-1417
-1392
-1387
-1378
-1372
-1360
-1343
-1333
-1340
-1336
-1333
-1313
-1318
-1319
-1323
-1321
-1317
-1322
-1340
-1344
-1349
-1333
-1352
-1356
-1363
-1360
-1353
-1352
-1353
-1345
-1329
-1305
-1299
-1284
-1271
-1250
-1229
-1218
-1211
-1198
-1175
-1157
-1157
-1152
-1150
-1142
-1137
-1148
-1156
-1161
-1149
-1152
-1162
-1169
-1174
-1173
-1172
-1180
-1183
-1182
-1159
-1158
-1148
-1138
-1119
-1091
-1068
-1059
-1038
-1017
-978
-962
-941
-924
-901
-874
-856
-851
-832
-814
-777
-775
-761
-752
-735
-717
-708
-702
-689
-668
-639
-630
-608
-585
-550
-513
-484
-455
-415
-361
-310
-273
-230
-188
-138
-90
-58
-23
15
68
105
133
163
193
227
259
280
304
330
377
396
423
449
483
524
560
586
623
661
718
755
799
841
890
942
984
1009
1048
1086
1138
1158
1187
1210
1239
1265
1281
1291
1305
1324
1346
1344
1350
1353
1364
1375
1374
1374
1382
1403
1421
1427
1441
1456
1481
1505
1516
1532
1550
1583
1602
1611
1621
1631
1642
1650
1643
1642
1638
1657
1643
1637
1627
1622
1621
1614
1595
1585
1576
1584
1569
1564
1556
1556
1562
1560
1547
1550
1556
1578
1576
1582
1587
1598
1608
1609
1605
1606
1612
1621
1606
1600
1589
1585
1580
1561
1539
1523
1518
1505
1480
1459
1440
1430
1420
1399
1384
1374
1382
1381
1373
1369
1368
1374
1378
1369
1367
1364
1386
1373
1368
1358
1352
1349
1338
1316
1301
1286
1288
1261
1244
1220
1203
1188
1164
1126
1104
1085
1081
1057
1043
1030
1026
1025
1017
1006
1005
1013
1024
1014
1013
1010
1014
1016
1004
988
977
978
968
946
928
910
900
886
857
832
808
799
779
752
729
711
700
688
662
650
639
653
637
630
622
621
623
620
607
601
594
604
582
570
551
539
530
512
483
465
451
446
422
404
384
371
358
337
312
298
294
296
280
276
272
277
282
277
271
271
286
291
286
286
287
294
296
285
276
268
274
270
259
249
243
240
234
210
199
186
197
179
172
165
166
173
176
173
179
188
218
215
227
232
246
263
270
267
272
280
295
288
286
281
280
277
263
244
231
227
223
199
183
166
158
152
134
119
111
123
124
121
124
131
147
161
162
166
173
193
201
203
205
210
218
219
203
198
192
207
193
186
177
174
174
170
156
153
151
172
158
162
164
177
194
204
209
223
242
267
272
284
293
308
321
322
317
319
329
337
326
320
312
309
304
285
267
255
260
251
236
225
219
221
223
215
213
215
235
243
251
260
274
292
304
299
306
312
337
333
333
330
330
333
329
310
302
292
303
275
263
245
236
230
216
198
189
187
194
183
183
181
190
201
204
204
212
229
245
243
247
249
257
263
254
245
240
251
245
232
222
212
207
198
180
162
148
151
138
128
118
115
121
122
110
113
118
144
147
155
160
170
182
188
178
179
178
197
177
172
161
157
154
141
123
110
102
100
79
67
54
52
51
42
31
31
44
57
55
60
67
82
95
94
95
99
120
123
117
111
106
104
100
87
75
67
77
65
57
47
42
43
38
20
14
9
24
18
18
18
25
36
41
33
41
51
81
77
86
92
105
116
119
116
118
124
135
124
122
116
119
121
111
97
90
93
93
77
69
63
67
70
61
57
57
76
82
83
89
96
108
118
116
117
119
139
131
127
118
115
116
110
89
79
68
72
53
38
20
9
1
-12
-38
-46
-52
-36
-49
-48
-48
-40
-31
-27
-29
-23
-11
8
6
13
17
29
39
36
30
29
39
44
33
27
22
24
23
7
-4
-13
-4
-8
-16
-19
-17
-6
5
7
14
24
57
60
69
75
86
102
111
106
108
110
127
118
115
107
107
109
102
82
76
72
85
71
67
61
63
67
65
62
69
86
112
120
140
160
189
218
234
247
266
296
318
326
338
349
365
377
374
372
372
385
386
378
373
369
370
368
354
348
343
364
354
355
355
362
376
385
385
393
402
428
426
433
434
444
455
457
443
442
442
455
441
434
424
419
414
399
379
366
361
359
337
325
312
309
306
294
282
280
292
299
296
299
302
313
320
312
307
305
316
315
306
299
293
291
285
264
249
234
241
214
197
177
164
157
145
124
112
102
112
94
90
83
86
95
95
84
85
89
103
94
92
86
86
86
76
61
53
51
52
30
17
0
-10
-21
-45
-69
-86
-88
-98
-117
-130
-139
-140
-141
-154
-161
-163
-149
-144
-146
-146
-142
-133
-129
-142
-145
-150
-132
-148
-156
-168
-174
-178
-187
-208
-223
-237
-233
-261
-276
-295
-303
-307
-317
-336
-342
-342
-331
-339
-336
-334
-323
-310
-306
-306
-300
-286
-271
-278
-277
-279
-275
-273
-283
-295
-301
-293
-296
-311
-322
-332
-335
-342
-359
-371
-378
-370
-370
-373
-373
-367
-355
-345
-350
-342
-335
-304
-303
-295
-289
-279
-268
-265
-275
-278
-283
-269
-292
-302
-318
-326
-333
-349
-374
-390
-401
-402
-421
-430
-438
-436
-431
-432
-437
-430
-412
-390
-387
-373
-360
-340
-322
-317
-312
-303
-281
-272
-274
-273
-273
-267
-265
-274
-282
-288
-281
-288
-300
-312
-320
-321
-324
-342
-343
-341
-314
-313
-303
-294
-277
-257
-242
-238
-225
-212
-178
-182
-171
-167
-156
-146
-148
-158
-162
-164
-161
-178
-188
-201
-207
-213
-228
-247
-256
-254
-250
-261
-260
-257
-243
-228
-224
-217
-204
-174
-159
-151
-139
-124
-103
-86
-79
-71
-60
-36
-27
-19
-12
0
18
30
27
38
48
80
86
99
111
130
154
174
183
206
230
278
289
316
338
367
397
416
429
448
470
495
499
510
516
528
539
538
532
534
544
552
542
539
535
539
540
529
522
520
536
540
539
543
550
564
577
581
586
592
614
615
617
616
619
626
624
605
596
586
592
572
554
533
516
500
478
441
417
391
385
342
312
273
240
203
153
93
35
-22
-76
-154
-227
-305
-377
-450
-534
-619
-694
-754
-814
-889
-956
-1021
-1076
-1133
-1203
-1270
-1333
-1377
-1433
-1494
-1549
-1600
-1643
-1685
-1734
-1778
-1814
-1827
-1857
-1876
-1890
-1889
-1872
-1850
-1829
-1784
-1723
-1631
-1548
-1449
-1342
-1218
-1078
-932
-782
-598
-392
-143
95
370
666
992
1340
1702
2081
2488
2922
3374
3816
4271
4722
5169
5597
5991
6354
6695
7018
7310
7561
7795
8009
8208
8386
8532
8669
8796
8930
9043
9141
9228
9298
9354
9385
9385
9370
9337
9304
9223
9128
9010
8883
8746
8590
8409
8230
8042
7863
7652
7438
7208
6973
6730
6469
6185
5908
5625
5355
5049
4751
4448
4154
3861
3563
3265
2978
2704
2440
2160
1896
1637
1393
1158
920
690
476
284
98
-94
-270
-438
-591
-739
-893
-1036
-1169
-1281
-1402
-1525
-1641
-1752
-1856
-1958
-2070
-2172
-2270
-2342
-2440
-2525
-2608
-2680
-2743
-2809
-2881
-2939
-2992
-3022
-3071
-3105
-3138
-3157
-3167
-3181
-3205
-3209
-3210
-3191
-3198
-3194
-3191
-3181
-3170
-3167
-3171
-3170
-3162
-3151
-3164
-3167
-3174
-3173
-3173
-3183
-3195
-3199
-3190
-3187
-3196
-3199
-3198
-3187
-3175
-3174
-3165
-3148
-3111
-3083
-3061
-3034
-3004
-2969
-2937
-2918
-2894
-2871
-2824
-2812
-2792
-2776
-2756
-2732
-2716
-2710
-2697
-2682
-2651
-2645
-2630
-2619
-2599
-2576
-2561
-2558
-2540
-2518
-2481
-2467
-2442
-2417
-2384
-2349
-2323
-2301
-2271
-2234
-2194
-2178
-2154
-2134
-2108
-2085
-2075
-2068
-2057
-2034
-2020
-2019
-2014
-2008
-1994
-1983
-1986
-1984
-1979
-1960
-1951
-1947
-1940
-1929
-1911
-1893
-1888
-1872
-1854
-1810
-1798
-1776
-1757
-1733
-1706
-1685
-1676
-1659
-1643
-1610
-1607
-1594
-1587
-1572
-1553
-1545
-1548
-1539
-1527
-1504
-1502
-1493
-1485
-1470
-1454
-1445
-1441
-1427
-1403
-1374
-1365
-1345
-1326
-1297
-1269
-1254
-1240
-1221
-1190
-1169
-1160
-1147
-1135
-1116
-1102
-1102
-1100
-1095
-1077
-1071
-1073
-1075
-1075
-1070
-1070
-1085
-1089
-1094
-1073
-1084
-1085
-1088
-1084
-1074
-1069
-1072
-1067
-1059
-1031
-1035
-1027
-1026
-1017
-1006
-1006
-1017
-1018
-1016
-1005
-1015
-1018
-1025
-1027
-1029
-1041
-1060
-1070
-1073
-1073
-1094
-1105
-1117
-1119
-1121
-1135
-1147
-1153
-1143
-1142
-1148
-1149
-1147
-1136
-1128
-1132
-1134
-1133
-1120
-1119
-1126
-1133
-1137
-1137
-1143
-1167
-1179
-1194
-1186
-1210
-1227
-1248
-1263
-1275
-1293
-1320
-1336
-1351
-1343
-1370
-1380
-1394
-1397
-1396
-1403
-1416
-1417
-1414
-1404
-1414
-1416
-1421
-1419
-1419
-1429
-1445
-1453
-1452
-1449
-1465
-1474
-1485
-1489
-1497
-1518
-1540
-1556
-1557
-1570
-1590
-1605
-1616
-1620
-1624
-1638
-1647
-1651
-1639
-1637
-1636
-1634
-1627
-1613
-1604
-1612
-1606
-1602
-1577
-1580
-1577
-1577
-1572
-1564
-1562
-1573
-1574
-1575
-1555
-1574
-1578
-1588
-1589
-1586
-1590
-1599
-1598
-1591
-1574
-1576
-1569
-1562
-1547
-1528
-1519
-1514
-1499
-1475
-1450
-1444
-1430
-1419
-1401
-1386
-1385
-1384
-1380
-1361
-1359
-1364
-1367
-1371
-1369
-1372
-1386
-1399
-1408
-1402
-1410
-1418
-1424
-1422
-1411
-1404
-1411
-1402
-1392
-1360
-1352
-1338
-1326
-1307
-1286
-1271
-1269
-1257
-1245
-1212
-1218
-1209
-1205
-1193
-1180
-1175
-1176
-1171
-1161
-1144
-1147
-1141
-1135
-1118
-1098
-1086
-1074
-1051
-1014
-975
-951
-917
-882
-836
-792
-760
-723
-682
-623
-579
-542
-501
-460
-413
-370
-338
-304
-268
-214
-180
-145
-111
-70
-23
18
45
85
127
190
231
281
330
387
448
505
549
607
663
740
780
834
882
937
990
1033
1069
1107
1149
1193
1214
1243
1267
1298
1328
1345
1357
1375
1403
1427
1436
1453
1469
1494
1518
1530
1547
1569
1609
1636
1657
1681
1705
1733
1758
1772
1787
1801
1833
1839
1847
1851
1859
1871
1874
1862
1859
1855
1868
1858
1854
1847
1847
1852
1852
1839
1843
1851
1880
1878
1892
1905
1927
1951
1966
1976
1990
2009
2032
2032
2038
2040
2047
2052
2043
2028
2019
2019
2014
1992
1976
1959
1949
1938
1913
1893
1878
1881
1872
1856
1846
1839
1838
1837
1826
1820
1816
1834
1822
1816
1805
1798
1794
1782
1756
1739
1721
1719
1692
1672
1647
1629
1613
1589
1550
1525
1502
1496
1462
1440
1416
1400
1384
1362
1335
1318
1308
1305
1282
1271
1259
1256
1253
1237
1219
1207
1206
1199
1178
1163
1149
1143
1134
1111
1092
1076
1076
1062
1040
1021
1004
992
978
954
936
920
929
909
898
886
883
886
884
873
871
869
884
874
872
865
863
864
855
831
820
809
811
786
766
742
724
704
674
639
611
591
577
543
521
499
487
477
457
437
426
431
431
421
417
414
419
419
406
395
387
392
385
370
357
345
338
327
303
286
267
271
242
223
200
186
178
166
146
135
129
141
128
126
120
125
134
133
121
122
125
140
130
127
120
118
115
102
84
74
71
73
53
42
28
21
13
-8
-29
-42
-40
-45
-58
-63
-65
-57
-50
-56
-55
-49
-29
-19
-16
-12
-5
6
12
2
0
-4
15
-1
-8
-19
-25
-28
-37
-57
-71
-86
-81
-108
-121
-137
-142
-142
-147
-159
-155
-146
-125
-122
-110
-99
-81
-63
-54
-50
-37
-17
4
3
9
11
19
25
18
9
6
16
16
6
-1
-6
-4
-4
-15
-21
-22
-6
3
8
18
33
54
73
77
92
105
140
143
154
160
170
182
187
180
179
177
194
175
170
158
155
155
146
128
121
118
126
116
115
114
124
136
142
145
158
182
208
213
226
236
254
269
270
269
272
287
288
279
271
264
263
258
242
228
217
220
212
200
190
185
187
185
168
166
166
192
190
198
204
217
234
244
242
247
251
276
263
263
256
259
262
255
241
234
232
236
220
212
203
201
201
192
180
179
189
201
196
200
206
221
236
239
245
258
285
299
304
311
320
332
341
339
338
339
353
352
348
342
340
344
341
321
314
306
320
308
301
294
293
295
293
280
279
280
304
292
297
296
304
312
310
302
300
301
308
293
286
276
273
271
257
240
229
226
222
200
185
169
161
152
131
114
103
112
107
97
93
92
99
107
107
108
112
132
133
134
131
133
139
137
119
111
103
113
98
87
72
61
52
36
5
-12
-29
-21
-49
-60
-74
-78
-79
-86
-98
-101
-95
-83
-92
-91
-93
-88
-82
-88
-99
-104
-100
-99
-116
-126
-137
-140
-146
-166
-183
-198
-197
-212
-233
-251
-266
-273
-281
-296
-306
-312
-299
-305
-306
-308
-300
-287
-279
-285
-279
-274
-252
-254
-252
-254
-252
-248
-252
-270
-276
-282
-268
-291
-302
-318
-328
-338
-355
-377
-391
-397
-395
-411
-415
-420
-414
-407
-408
-410
-404
-387
-373
-374
-369
-363
-351
-342
-349
-353
-356
-343
-347
-357
-365
-371
-372
-377
-392
-405
-416
-408
-425
-433
-442
-442
-432
-424
-426
-415
-401
-369
-357
-338
-322
-299
-273
-254
-250
-231
-212
-177
-176
-164
-157
-145
-133
-131
-134
-132
-125
-114
-126
-130
-137
-136
-135
-145
-156
-158
-147
-137
-138
-131
-122
-104
-86
-83
-75
-65
-38
-25
-20
-12
-3
10
19
16
16
16
36
25
22
15
14
17
15
1
-4
-8
6
-3
-2
-4
4
17
25
21
33
47
79
82
95
105
122
139
147
149
157
170
186
178
178
174
177
177
165
149
140
143
140
124
115
107
108
108
96
92
93
113
122
127
136
150
167
183
184
191
197
226
221
223
221
224
231
229
216
208
200
207
187
176
159
150
144
131
106
97
92
104
94
95
96
107
120
127
131
145
165
190
193
205
214
229
242
242
239
241
254
259
249
243
236
237
234
217
204
194
199
195
185
178
175
178
181
173
175
179
210
209
219
226
238
253
261
257
259
259
275
261
256
246
243
244
235
213
204
197
201
182
171
159
155
153
145
134
134
143
159
154
161
167
184
200
203
204
211
231
241
238
237
236
241
241
228
219
212
220
218
209
202
196
195
190
170
161
154
173
162
161
159
164
173
176
170
172
176
200
191
195
193
199
206
202
185
177
172
174
156
145
132
125
117
100
77
61
52
46
19
2
-14
-21
-27
-43
-57
-63
-54
-55
-64
-67
-68
-62
-59
-68
-75
-79
-72
-77
-90
-103
-113
-119
-129
-155
-169
-183
-172
-193
-206
-222
-233
-240
-252
-273
-283
-292
-277
-296
-298
-303
-297
-286
-283
-286
-280
-268
-247
-244
-233
-225
-210
-195
-191
-193
-187
-172
-157
-163
-161
-160
-154
-149
-158
-168
-172
-161
-163
-173
-177
-177
-168
-160
-160
-155
-146
-122
-110
-101
-92
-80
-62
-50
-55
-48
-43
-18
-23
-24
-28
-28
-26
-32
-50
-58
-68
-57
-83
-95
-112
-119
-122
-134
-150
-155
-153
-143
-149
-146
-144
-132
-119
-115
-116
-109
-92
-75
-77
-72
-68
-58
-52
-62
-71
-78
-70
-78
-94
-109
-122
-130
-142
-164
-186
-205
-210
-230
-253
-276
-296
-314
-341
-387
-425
-468
-496
-555
-613
-676
-737
-796
-861
-938
-1002
-1065
-1104
-1180
-1240
-1305
-1361
-1414
-1477
-1545
-1607
-1662
-1708
-1772
-1825
-1879
-1923
-1964
-2012
-2061
-2097
-2118
-2135
-2162
-2176
-2184
-2181
-2174
-2171
-2157
-2126
-2065
-2007
-1944
-1868
-1781
-1677
-1564
-1445
-1307
-1145
-945
-738
-504
-247
43
364
702
1050
1436
1845
2293
2731
3185
3638
4090
4533
4953
5338
5710
6056
6397
6678
6950
7196
7429
7645
7836
8008
8173
8332
8487
8611
8730
8828
8914
8978
9010
9019
9017
9006
8974
8905
8826
8729
8625
8505
8359
8206
8047
7897
7722
7530
7329
7117
6898
6665
6414
6156
5894
5644
5367
5090
4810
4535
4267
3993
3707
3433
3163
2914
2647
2391
2138
1900
1674
1449
1219
1013
817
650
459
290
126
-21
-159
-298
-436
-562
-676
-780
-902
-1010
-1118
-1214
-1306
-1405
-1503
-1591
-1665
-1739
-1825
-1902
-1977
-2040
-2101
-2172
-2233
-2285
-2314
-2351
-2389
-2417
-2437
-2448
-2455
-2469
-2475
-2476
-2455
-2461
-2458
-2459
-2453
-2444
-2443
-2456
-2463
-2470
-2463
-2479
-2489
-2504
-2512
-2517
-2530
-2558
-2571
-2582
-2572
-2591
-2595
-2599
-2592
-2580
-2573
-2567
-2551
-2528
-2497
-2487
-2466
-2446
-2418
-2391
-2375
-2363
-2345
-2317
-2296
-2292
-2283
-2274
-2260
-2249
-2253
-2252
-2249
-2229
-2222
-2222
-2219
-2214
-2203
-2192
-2191
-2182
-2169
-2131
-2121
-2100
-2081
-2053
-2020
-1992
-1975
-1950
-1927
-1889
-1877
-1858
-1846
-1830
-1812
-1804
-1813
-1808
-1804
-1785
-1795
-1795
-1799
-1795
-1792
-1797
-1808
-1810
-1803
-1789
-1795
-1788
-1781
-1762
-1740
-1729
-1718
-1701
-1670
-1646
-1637
-1623
-1610
-1590
-1575
-1574
-1572
-1568
-1551
-1547
-1553
-1557
-1559
-1557
-1558
-1571
-1578
-1583
-1565
-1579
-1584
-1591
-1591
-1585
-1582
-1588
-1583
-1576
-1549
-1548
-1537
-1529
-1513
-1493
-1484
-1487
-1478
-1466
-1441
-1442
-1435
-1431
-1421
-1413
-1414
-1421
-1421
-1414
-1404
-1416
-1418
-1423
-1419
-1417
-1427
-1438
-1441
-1430
-1425
-1430
-1428
-1422
-1407
-1394
-1392
-1385
-1374
-1350
-1337
-1332
-1326
-1318
-1306
-1299
-1308
-1308
-1309
-1287
-1299
-1302
-1309
-1311
-1308
-1312
-1324
-1329
-1333
-1319
-1335
-1337
-1344
-1339
-1330
-1327
-1333
-1325
-1312
-1287
-1281
-1268
-1257
-1241
-1224
-1217
-1216
-1207
-1192
-1174
-1178
-1175
-1174
-1167
-1163
-1172
-1183
-1189
-1182
-1186
-1201
-1211
-1220
-1222
-1225
-1239
-1248
-1251
-1239
-1234
-1232
-1227
-1218
-1201
-1187
-1189
-1180
-1173
-1143
-1147
-1143
-1143
-1138
-1131
-1131
-1143
-1147
-1153
-1139
-1160
-1169
-1184
-1191
-1196
-1211
-1234
-1245
-1252
-1248
-1260
-1264
-1268
-1263
-1255
-1254
-1256
-1246
-1225
-1200
-1196
-1183
-1172
-1155
-1139
-1137
-1137
-1133
-1115
-1110
-1115
-1117
-1118
-1114
-1116
-1129
-1142
-1153
-1149
-1156
-1168
-1176
-1178
-1173
-1170
-1181
-1177
-1171
-1139
-1136
-1123
-1111
-1092
-1070
-1055
-1051
-1039
-1029
-1000
-1010
-1007
-1011
-1008
-1003
-1008
-1021
-1025
-1026
-1018
-1030
-1036
-1044
-1045
-1045
-1053
-1064
-1063
-1051
-1035
-1037
-1030
-1022
-1006
-990
-985
-977
-964
-935
-920
-914
-904
-894
-878
-867
-867
-866
-862
-845
-840
-839
-837
-831
-819
-812
-823
-820
-816
-789
-788
-777
-766
-746
-721
-697
-681
-651
-619
-563
-540
-500
-465
-420
-373
-335
-303
-265
-224
-177
-152
-120
-90
-53
-16
10
31
60
98
135
152
177
201
234
267
287
312
342
393
431
465
504
545
595
643
681
721
763
818
856
892
925
961
1000
1032
1045
1068
1089
1128
1141
1157
1170
1187
1205
1217
1216
1226
1236
1270
1268
1282
1294
1317
1343
1362
1375
1395
1421
1452
1463
1480
1494
1515
1534
1541
1543
1550
1566
1578
1570
1567
1563
1566
1566
1552
1540
1530
1536
1526
1510
1497
1488
1486
1484
1476
1472
1472
1491
1491
1495
1498
1507
1522
1529
1520
1522
1523
1542
1535
1530
1521
1516
1511
1498
1469
1453
1436
1440
1407
1389
1366
1351
1338
1317
1293
1276
1267
1267
1248
1240
1233
1235
1239
1233
1225
1224
1233
1239
1228
1222
1214
1212
1206
1186
1167
1151
1151
1135
1111
1090
1071
1056
1039
1012
989
968
967
943
927
910
901
900
895
879
875
872
888
883
882
877
877
880
874
854
847
839
850
827
815
799
789
777
755
727
706
691
681
651
631
609
597
587
568
547
536
539
540
528
525
523
530
536
528
522
519
532
529
518
508
499
494
485
465
448
432
436
410
392
371
357
348
335
312
299
289
297
285
281
275
279
289
293
284
293
303
331
329
336
339
349
358
358
351
351
357
366
354
350
343
343
340
323
304
290
289
282
263
252
243
244
244
232
227
227
245
252
255
262
272
286
296
293
294
295
316
303
297
286
281
279
271
251
238
225
228
204
188
166
154
146
133
108
101
97
111
101
101
102
110
120
124
123
129
142
159
155
159
159
166
171
162
150
145
152
153
142
137
133
135
134
119
109
102
112
114
110
111
117
130
142
141
150
160
197
201
216
227
245
267
283
288
299
309
335
332
337
337
346
358
360
350
353
357
372
363
362
357
360
364
360
353
355
366
381
377
382
387
399
411
410
408
412
429
437
433
431
429
433
433
419
408
400
406
400
387
375
364
358
348
323
309
295
306
287
278
268
266
269
267
258
257
257
275
262
261
256
260
267
264
250
248
248
256
244
239
232
232
232
223
210
205
208
213
197
191
185
187
190
183
178
179
197
206
206
212
219
233
244
243
245
250
267
273
272
272
274
281
284
270
268
264
283
271
266
258
255
254
248
232
225
219
233
214
211
204
208
216
216
208
209
215
229
224
226
225
230
235
229
218
215
220
226
211
204
195
192
187
168
150
135
136
126
108
94
85
83
81
70
62
59
71
71
68
66
67
76
79
66
65
63
83
74
71
65
62
62
54
34
23
10
17
-14
-29
-49
-58
-64
-77
-96
-105
-107
-100
-111
-114
-117
-111
-104
-106
-112
-108
-95
-80
-85
-83
-82
-74
-69
-79
-88
-93
-83
-88
-103
-116
-129
-136
-149
-172
-193
-211
-213
-228
-244
-258
-265
-265
-268
-284
-285
-285
-263
-267
-264
-262
-255
-244
-240
-249
-247
-245
-223
-239
-241
-249
-249
-249
-259
-277
-287
-293
-293
-312
-321
-332
-333
-331
-338
-347
-344
-330
-315
-315
-307
-299
-283
-268
-267
-263
-256
-233
-225
-226
-225
-224
-217
-214
-223
-230
-237
-229
-241
-252
-266
-274
-276
-282
-302
-308
-312
-293
-295
-290
-286
-272
-253
-238
-236
-219
-202
-163
-160
-142
-130
-110
-91
-81
-77
-69
-56
-38
-42
-39
-40
-34
-29
-37
-48
-51
-43
-36
-44
-42
-38
-23
-8
-3
7
23
58
80
95
114
134
159
181
191
201
212
237
238
240
238
240
246
243
225
216
206
214
198
188
176
172
174
170
155
157
161
188
183
193
201
217
234
242
245
254
268
287
282
285
283
287
290
279
264
255
257
255
235
222
207
201
193
172
158
150
160
158
153
153
156
166
175
175
179
185
210
208
211
210
214
221
220
204
197
189
197
182
173
160
154
151
141
118
110
104
119
105
105
103
111
121
124
123
130
143
164
165
175
182
196
209
210
207
210
223
230
220
216
213
217
219
205
195
188
195
187
172
160
150
146
143
130
123
118
136
126
124
121
126
138
144
139
143
148
169
166
168
165
168
174
171
154
152
150
164
149
143
133
128
122
108
89
78
75
80
65
62
58
65
73
71
69
75
95
109
110
117
124
137
148
143
140
140
153
153
144
138
133
131
126
106
92
76
82
56
39
21
10
5
-4
-22
-28
-32
-17
-26
-24
-25
-17
-5
-2
-11
-7
-1
18
9
8
1
-1
-3
-16
-35
-47
-52
-53
-76
-90
-107
-116
-127
-149
-171
-184
-181
-183
-194
-198
-197
-187
-179
-182
-181
-177
-157
-149
-148
-145
-141
-133
-130
-143
-148
-156
-140
-160
-170
-184
-193
-200
-213
-236
-253
-268
-266
-291
-304
-319
-323
-319
-321
-333
-328
-319
-297
-296
-288
-281
-267
-252
-246
-246
-238
-224
-209
-215
-214
-215
-209
-203
-209
-216
-216
-203
-199
-205
-207
-206
-196
-188
-193
-191
-183
-159
-142
-130
-115
-96
-70
-48
-43
-28
-14
24
29
41
48
60
73
79
73
72
70
86
68
63
50
45
42
29
6
-5
-11
-7
-22
-28
-33
-30
-24
-25
-32
-30
-22
-16
-36
-53
-78
-102
-134
-186
-245
-304
-354
-419
-496
-571
-645
-712
-779
-857
-928
-994
-1044
-1104
-1168
-1229
-1285
-1333
-1382
-1442
-1486
-1528
-1544
-1589
-1624
-1661
-1692
-1720
-1753
-1795
-1827
-1855
-1862
-1902
-1923
-1943
-1947
-1937
-1925
-1910
-1874
-1823
-1753
-1689
-1604
-1504
-1377
-1226
-1059
-868
-642
-380
-89
208
539
893
1279
1688
2103
2532
2972
3427
3860
4271
4667
5044
5404
5738
6037
6317
6579
6836
7062
7268
7459
7641
7817
7976
8110
8247
8370
8500
8584
8656
8707
8745
8765
8760
8724
8680
8618
8562
8453
8345
8219
8087
7946
7782
7597
7407
7209
7006
6773
6539
6295
6053
5805
5542
5272
5007
4749
4492
4218
3954
3693
3445
3201
2949
2706
2474
2266
2050
1833
1628
1432
1249
1070
888
712
544
396
239
84
-66
-206
-335
-464
-604
-725
-842
-932
-1045
-1148
-1251
-1345
-1432
-1521
-1620
-1701
-1777
-1825
-1905
-1965
-2024
-2069
-2108
-2150
-2193
-2224
-2246
-2259
-2289
-2307
-2326
-2335
-2342
-2360
-2380
-2392
-2393
-2396
-2415
-2426
-2438
-2443
-2451
-2474
-2495
-2514
-2516
-2533
-2555
-2573
-2588
-2595
-2602
-2616
-2627
-2633
-2621
-2625
-2625
-2625
-2618
-2603
-2593
-2596
-2586
-2576
-2546
-2541
-2531
-2525
-2513
-2498
-2489
-2494
-2487
-2480
-2454
-2465
-2464
-2469
-2467
-2465
-2470
-2480
-2481
-2475
-2462
-2467
-2461
-2454
-2437
-2418
-2408
-2399
-2381
-2349
-2318
-2301
-2276
-2252
-2220
-2190
-2175
-2159
-2139
-2103
-2084
-2072
-2059
-2045
-2027
-2014
-2012
-2010
-2007
-1986
-1987
-1983
-1980
-1967
-1947
-1932
-1927
-1909
-1888
-1846
-1827
-1801
-1775
-1743
-1705
-1674
-1658
-1627
-1598
-1550
-1538
-1515
-1498
-1475
-1454
-1444
-1440
-1434
-1424
-1409
-1418
-1418
-1420
-1414
-1407
-1409
-1412
-1405
-1384
-1364
-1356
-1340
-1322
-1294
-1268
-1256
-1240
-1220
-1184
-1162
-1148
-1131
-1114
-1093
-1076
-1071
-1064
-1057
-1031
-1033
-1031
-1033
-1030
-1022
-1022
-1034
-1036
-1036
-1020
-1025
-1022
-1021
-1010
-994
-983
-985
-969
-953
-919
-915
-899
-886
-867
-848
-838
-834
-825
-811
-794
-800
-798
-799
-795
-792
-804
-819
-828
-826
-829
-847
-858
-867
-867
-868
-881
-887
-888
-870
-862
-860
-853
-846
-834
-825
-828
-826
-824
-801
-810
-812
-818
-820
-818
-824
-843
-856
-869
-868
-893
-910
-933
-948
-958
-976
-1007
-1021
-1031
-1024
-1040
-1044
-1047
-1041
-1032
-1029
-1030
-1024
-1011
-994
-1001
-999
-1001
-995
-991
-1001
-1013
-1021
-1017
-1021
-1041
-1055
-1070
-1077
-1088
-1113
-1133
-1150
-1150
-1158
-1172
-1181
-1185
-1181
-1178
-1186
-1183
-1179
-1147
-1148
-1138
-1133
-1121
-1107
-1099
-1102
-1101
-1100
-1083
-1094
-1096
-1103
-1103
-1101
-1107
-1129
-1137
-1145
-1140
-1158
-1167
-1177
-1177
-1175
-1179
-1186
-1182
-1168
-1148
-1148
-1137
-1125
-1106
-1087
-1080
-1075
-1066
-1044
-1033
-1035
-1033
-1032
-1025
-1022
-1033
-1041
-1046
-1038
-1041
-1052
-1061
-1068
-1068
-1070
-1085
-1088
-1088
-1061
-1065
-1059
-1053
-1039
-1022
-1008
-1003
-989
-975
-944
-943
-931
-925
-910
-895
-889
-896
-891
-884
-866
-870
-867
-866
-859
-852
-855
-863
-863
-855
-844
-852
-849
-847
-834
-819
-814
-808
-795
-766
-745
-732
-715
-695
-668
-643
-632
-617
-599
-569
-550
-539
-527
-513
-494
-478
-477
-464
-451
-415
-410
-397
-387
-370
-348
-330
-319
-297
-272
-224
-209
-177
-149
-111
-68
-33
-7
30
71
120
151
186
219
259
297
325
346
376
414
452
470
495
518
548
576
591
606
625
661
686
704
728
757
794
829
853
881
914
960
993
1020
1047
1077
1111
1139
1148
1170
1188
1227
1233
1245
1252
1263
1276
1283
1278
1280
1283
1305
1292
1293
1289
1295
1305
1307
1303
1311
1324
1347
1351
1365
1378
1398
1420
1431
1437
1452
1474
1495
1496
1503
1508
1518
1525
1517
1508
1503
1512
1507
1494
1483
1474
1471
1464
1448
1434
1424
1430
1425
1420
1416
1418
1429
1437
1429
1434
1437
1461
1455
1454
1448
1446
1445
1435
1410
1394
1376
1378
1341
1318
1288
1267
1246
1217
1181
1153
1131
1117
1085
1062
1038
1024
1013
995
975
965
968
974
962
958
954
957
957
942
928
917
921
910
891
875
860
850
837
814
792
773
768
747
726
705
690
683
671
646
636
628
642
634
633
632
639
650
655
647
651
654
678
664
664
658
660
662
655
642
635
633
635
616
603
587
579
571
552
530
518
517
517
502
496
492
496
501
493
490
494
515
522
522
525
528
535
539
532
525
520
532
522
514
503
497
496
489
465
453
441
448
433
424
416
415
420
420
407
410
415
443
437
447
454
469
485
493
494
501
512
526
516
514
508
508
509
498
483
475
478
477
458
445
433
429
424
408
399
395
411
414
412
414
418
428
437
437
439
442
463
458
458
454
454
457
453
434
424
413
420
404
393
379
371
366
353
326
314
303
314
294
288
281
284
288
286
280
280
288
303
296
298
298
306
313
307
297
292
298
298
281
270
258
253
246
224
206
190
190
175
153
134
117
106
94
74
60
49
60
44
36
27
25
29
28
15
11
8
23
15
13
6
7
10
6
-14
-18
-21
-7
-22
-28
-36
-38
-40
-51
-68
-76
-77
-72
-89
-93
-98
-93
-88
-92
-96
-91
-73
-60
-60
-53
-44
-27
-13
-14
-12
-8
11
17
14
13
14
18
20
9
3
-3
13
-3
-11
-20
-21
-15
-13
-21
-18
-12
13
15
26
33
47
64
72
67
77
88
112
110
114
115
121
125
120
108
102
102
106
88
78
65
58
51
31
11
-2
0
-3
-15
-20
-21
-13
-6
-10
-10
-7
11
18
17
19
22
29
32
21
16
9
24
4
-7
-24
-36
-44
-59
-83
-100
-116
-113
-138
-151
-168
-174
-174
-180
-196
-196
-192
-174
-177
-172
-169
-159
-149
-148
-153
-149
-138
-124
-132
-131
-134
-130
-127
-138
-151
-159
-155
-160
-177
-189
-201
-203
-207
-223
-233
-237
-224
-219
-218
-213
-203
-187
-175
-176
-167
-160
-128
-131
-126
-124
-118
-110
-108
-117
-120
-124
-112
-132
-142
-158
-166
-170
-183
-206
-215
-218
-210
-220
-220
-220
-210
-197
-189
-184
-168
-144
-117
-111
-97
-85
-66
-50
-47
-47
-42
-24
-17
-22
-23
-24
-20
-20
-34
-45
-53
-46
-48
-53
-54
-49
-37
-26
-29
-19
-8
28
34
50
64
84
106
122
127
139
149
177
169
173
171
177
185
182
170
167
167
175
163
157
148
147
148
142
133
135
149
166
165
174
183
202
221
228
236
248
275
289
294
302
309
321
329
323
319
318
330
329
323
317
313
313
308
286
276
266
281
269
265
260
263
270
272
263
264
265
284
263
252
230
210
185
142
85
28
-29
-83
-158
-228
-300
-365
-428
-499
-572
-634
-685
-734
-800
-855
-911
-958
-1004
-1060
-1112
-1157
-1185
-1227
-1276
-1321
-1362
-1396
-1432
-1478
-1519
-1556
-1578
-1612
-1644
-1671
-1685
-1685
-1680
-1680
-1656
-1620
-1553
-1502
-1434
-1353
-1251
-1128
-990
-840
-651
-435
-170
85
381
696
1044
1418
1807
2212
2639
3079
3528
3954
4379
4787
5183
5554
5887
6188
6468
6733
6973
7174
7361
7529
7689
7833
7952
8063
8170
8285
8373
8438
8490
8526
8551
8555
8533
8492
8434
8372
8273
8158
8024
7881
7731
7562
7368
7177
6976
6785
6560
6329
6088
5845
5599
5343
5068
4803
4537
4291
4010
3745
3479
3223
2972
2719
2466
2226
2000
1787
1562
1354
1153
968
792
610
430
264
114
-31
-186
-329
-466
-589
-710
-840
-962
-1077
-1170
-1275
-1383
-1484
-1580
-1668
-1754
-1847
-1933
-2012
-2068
-2141
-2206
-2268
-2317
-2354
-2392
-2438
-2467
-2491
-2493
-2515
-2529
-2543
-2549
-2550
-2556
-2577
-2581
-2585
-2569
-2587
-2593
-2603
-2607
-2612
-2626
-2647
-2661
-2669
-2671
-2694
-2705
-2717
-2718
-2719
-2728
-2737
-2734
-2717
-2700
-2695
-2679
-2660
-2631
-2603
-2587
-2568
-2544
-2503
-2478
-2460
-2438
-2416
-2389
-2366
-2355
-2343
-2333
-2305
-2306
-2303
-2304
-2300
-2291
-2289
-2299
-2298
-2296
-2276
-2276
-2268
-2262
-2246
-2224
-2207
-2200
-2176
-2151
-2105
-2092
-2066
-2045
-2019
-1994
-1979
-1969
-1954
-1933
-1908
-1906
-1897
-1892
-1881
-1872
-1877
-1885
-1886
-1875
-1869
-1876
-1875
-1872
-1859
-1846
-1846
-1839
-1825
-1793
-1771
-1754
-1732
-1709
-1679
-1652
-1636
-1617
-1598
-1558
-1551
-1537
-1528
-1513
-1496
-1487
-1492
-1491
-1491
-1478
-1491
-1497
-1508
-1510
-1507
-1510
-1525
-1523
-1517
-1493
-1492
-1479
-1467
-1445
-1421
-1403
-1390
-1370
-1342
-1309
-1299
-1282
-1268
-1250
-1233
-1231
-1232
-1228
-1213
-1206
-1214
-1218
-1224
-1224
-1228
-1247
-1261
-1272
-1266
-1270
-1279
-1282
-1281
-1272
-1264
-1267
-1260
-1251
-1217
-1215
-1204
-1195
-1180
-1162
-1150
-1152
-1148
-1145
-1128
-1137
-1138
-1144
-1143
-1140
-1146
-1167
-1173
-1178
-1169
-1184
-1189
-1193
-1188
-1179
-1176
-1173
-1160
-1136
-1107
-1097
-1075
-1055
-1026
-997
-980
-965
-943
-909
-885
-874
-861
-849
-832
-820
-823
-822
-819
-802
-797
-801
-805
-807
-806
-808
-824
-829
-832
-808
-814
-808
-803
-790
-771
-757
-751
-740
-728
-700
-703
-695
-694
-685
-675
-674
-688
-691
-694
-687
-702
-711
-723
-727
-731
-743
-759
-766
-766
-761
-775
-779
-784
-778
-771
-774
-776
-770
-750
-739
-738
-733
-728
-716
-708
-714
-718
-721
-711
-714
-726
-737
-746
-751
-760
-785
-800
-816
-809
-834
-851
-870
-883
-892
-904
-923
-933
-941
-927
-945
-947
-953
-948
-939
-939
-951
-951
-947
-934
-941
-943
-946
-943
-940
-947
-959
-962
-958
-952
-965
-968
-973
-970
-967
-977
-985
-986
-972
-967
-971
-969
-963
-948
-935
-931
-922
-908
-882
-866
-857
-848
-836
-819
-808
-814
-807
-802
-774
-777
-774
-774
-770
-765
-765
-777
-780
-782
-765
-782
-783
-787
-781
-769
-764
-765
-755
-737
-709
-697
-676
-656
-628
-599
-580
-565
-543
-513
-482
-470
-450
-431
-404
-378
-365
-351
-333
-299
-280
-269
-254
-237
-213
-190
-177
-160
-138
-101
-75
-51
-25
7
46
83
105
141
176
233
262
298
330
366
403
434
452
479
505
550
557
578
592
612
633
644
648
660
677
702
710
726
741
765
790
807
820
843
878
915
932
958
983
1014
1044
1058
1071
1087
1118
1132
1138
1145
1152
1163
1170
1166
1161
1157
1165
1157
1147
1136
1131
1132
1129
1112
1110
1109
1130
1127
1130
1134
1145
1158
1166
1160
1167
1172
1199
1186
1188
1183
1185
1188
1181
1167
1160
1157
1159
1140
1127
1110
1100
1090
1070
1047
1035
1035
1036
1022
1018
1015
1022
1028
1021
1018
1020
1039
1043
1040
1040
1040
1045
1045
1033
1021
1010
1012
994
977
959
946
939
925
896
879
863
864
843
828
814
807
807
803
788
789
792
817
808
815
818
828
840
844
841
844
850
860
846
840
829
825
819
802
781
768
765
759
737
721
705
697
689
668
653
645
657
657
654
656
662
675
687
689
693
700
724
724
728
727
731
738
738
720
712
703
709
692
679
662
651
644
631
604
594
585
599
581
579
576
584
593
597
597
605
619
639
636
641
642
650
657
652
642
639
646
647
633
624
614
611
606
587
572
560
565
555
540
528
518
515
511
498
491
488
507
501
503
503
510
521
526
517
517
518
534
527
524
518
518
520
514
491
483
475
484
462
451
437
430
424
409
391
381
380
385
372
371
372
383
395
399
402
412
434
451
452
459
465
476
485
478
475
473
486
485
475
465
455
448
437
414
396
378
382
356
338
319
307
301
292
274
267
262
276
266
266
262
265
271
268
249
245
240
249
231
221
207
199
190
172
148
131
120
114
85
65
46
36
28
10
-7
-15
-8
-5
-14
-14
-12
1
12
9
9
13
31
36
33
30
28
30
27
9
-2
-12
1
-19
-30
-46
-56
-63
-76
-98
-113
-126
-119
-138
-145
-155
-154
-148
-149
-160
-156
-147
-126
-129
-125
-123
-116
-109
-112
-122
-125
-121
-114
-129
-136
-145
-146
-149
-164
-182
-194
-193
-200
-219
-231
-240
-241
-242
-255
-262
-264
-251
-247
-248
-245
-238
-225
-215
-220
-214
-209
-179
-184
-180
-181
-177
-171
-171
-182
-187
-191
-178
-197
-205
-221
-228
-233
-245
-268
-275
-277
-266
-273
-270
-267
-254
-239
-232
-227
-214
-194
-169
-166
-152
-141
-125
-110
-110
-111
-108
-93
-88
-93
-94
-94
-88
-85
-96
-104
-109
-101
-101
-105
-106
-102
-90
-79
-82
-72
-62
-26
-21
-8
3
18
36
47
48
54
57
78
63
61
51
49
50
41
23
15
10
14
-1
-9
-18
-18
-17
-22
-30
-27
-13
6
7
18
28
46
64
67
71
78
99
107
105
105
105
111
112
101
91
84
88
81
69
56
47
43
34
8
-5
-17
-5
-22
-29
-38
-40
-38
-42
-57
-64
-74
-67
-102
-128
-166
-202
-241
-296
-363
-427
-489
-547
-624
-694
-767
-830
-890
-957
-1026
-1086
-1137
-1186
-1255
-1314
-1373
-1423
-1471
-1529
-1583
-1630
-1661
-1705
-1755
-1800
-1841
-1875
-1909
-1950
-1985
-2013
-2023
-2042
-2058
-2065
-2058
-2035
-2007
-1983
-1934
-1873
-1778
-1699
-1599
-1486
-1349
-1188
-1009
-815
-585
-330
-28
261
590
939
1321
1730
2150
2576
3013
3449
3882
4281
4671
5040
5394
5726
6026
6302
6564
6815
7046
7241
7428
7600
7771
7930
8066
8194
8313
8435
8527
8597
8653
8694
8724
8732
8712
8675
8623
8568
8479
8371
8244
8106
7958
7789
7589
7388
7172
6964
6720
6473
6217
5962
5704
5436
5152
4879
4604
4350
4060
3786
3511
3251
2998
2743
2489
2249
2021
1808
1583
1375
1173
988
810
628
449
283
133
-11
-168
-312
-451
-578
-700
-831
-954
-1068
-1160
-1263
-1367
-1464
-1555
-1636
-1715
-1798
-1875
-1944
-1990
-2052
-2106
-2157
-2197
-2225
-2254
-2293
-2315
-2334
-2331
-2349
-2360
-2372
-2376
-2376
-2382
-2402
-2406
-2411
-2394
-2412
-2415
-2422
-2421
-2421
-2431
-2447
-2458
-2464
-2465
-2486
-2496
-2507
-2507
-2506
-2513
-2522
-2520
-2505
-2489
-2486
-2473
-2459
-2435
-2412
-2402
-2389
-2372
-2339
-2321
-2311
-2298
-2284
-2267
-2253
-2250
-2245
-2240
-2217
-2221
-2221
-2224
-2220
-2212
-2208
-2216
-2211
-2203
-2177
-2171
-2157
-2145
-2124
-2098
-2076
-2068
-2044
-2018
-1972
-1958
-1932
-1910
-1883
-1855
-1838
-1828
-1813
-1792
-1767
-1766
-1756
-1748
-1735
-1722
-1723
-1728
-1728
-1717
-1708
-1714
-1712
-1708
-1693
-1679
-1676
-1667
-1653
-1619
-1598
-1584
-1566
-1546
-1520
-1497
-1486
-1473
-1461
-1429
-1430
-1425
-1424
-1419
-1410
-1409
-1421
-1425
-1429
-1418
-1432
-1439
-1450
-1452
-1449
-1453
-1468
-1464
-1455
-1425
-1421
-1403
-1386
-1359
-1331
-1311
-1295
-1272
-1242
-1208
-1198
-1179
-1164
-1144
-1127
-1124
-1125
-1120
-1105
-1098
-1105
-1108
-1110
-1106
-1104
-1118
-1126
-1130
-1116
-1112
-1113
-1108
-1099
-1082
-1066
-1060
-1047
-1034
-998
-995
-983
-975
-961
-943
-933
-936
-934
-933
-918
-930
-934
-945
-949
-949
-959
-983
-991
-998
-990
-1006
-1011
-1016
-1013
-1007
-1006
-1008
-1000
-981
-956
-949
-932
-917
-895
-875
-869
-866
-858
-840
-831
-836
-838
-841
-837
-838
-854
-867
-877
-874
-880
-894
-905
-913
-916
-920
-935
-941
-944
-921
-929
-925
-924
-914
-899
-889
-890
-885
-882
-863
-875
-876
-884
-885
-883
-891
-913
-922
-929
-926
-945
-957
-972
-981
-990
-1006
-1027
-1039
-1042
-1041
-1059
-1066
-1073
-1071
-1068
-1076
-1082
-1080
-1063
-1054
-1057
-1054
-1051
-1041
-1035
-1044
-1050
-1053
-1043
-1043
-1051
-1057
-1062
-1063
-1068
-1090
-1102
-1114
-1102
-1121
-1132
-1144
-1148
-1148
-1151
-1162
-1164
-1164
-1143
-1153
-1149
-1148
-1136
-1121
-1114
-1119
-1112
-1102
-1083
-1087
-1084
-1084
-1077
-1071
-1074
-1081
-1080
-1072
-1061
-1072
-1076
-1081
-1079
-1078
-1088
-1097
-1098
-1083
-1076
-1078
-1074
-1066
-1049
-1034
-1027
-1015
-999
-969
-949
-935
-920
-905
-885
-871
-875
-867
-861
-831
-832
-825
-820
-811
-801
-796
-803
-801
-798
-775
-785
-777
-773
-758
-737
-724
-717
-698
-673
-637
-618
-590
-564
-529
-493
-466
-443
-411
-372
-331
-312
-285
-259
-226
-195
-178
-160
-138
-102
-81
-69
-53
-36
-12
11
26
45
69
110
141
169
199
235
278
318
341
377
412
470
498
531
560
593
626
652
666
687
707
747
749
765
774
790
807
814
812
817
827
845
845
853
861
878
896
905
911
926
952
978
985
1000
1014
1036
1056
1060
1064
1071
1091
1095
1090
1087
1084
1085
1083
1068
1055
1043
1045
1031
1016
1000
991
990
986
967
965
964
988
986
993
1000
1014
1030
1041
1040
1051
1061
1092
1086
1094
1096
1105
1114
1113
1105
1103
1106
1115
1104
1101
1095
1096
1099
1092
1083
1084
1097
1112
1111
1121
1132
1153
1174
1182
1193
1206
1235
1248
1254
1262
1270
1283
1290
1286
1281
1277
1286
1274
1261
1245
1234
1227
1215
1187
1171
1155
1159
1139
1126
1112
1105
1104
1099
1083
1083
1085
1111
1101
1106
1104
1109
1114
1109
1098
1093
1092
1095
1077
1066
1052
1045
1037
1017
994
978
972
965
941
925
909
902
895
876
862
855
868
868
863
864
868
879
888
887
887
887
904
896
889
878
872
870
861
837
823
809
811
790
774
754
741
731
715
684
668
655
664
640
631
620
618
619
613
605
605
612
624
614
612
607
609
611
600
585
577
578
577
559
547
534
529
522
499
480
464
465
453
435
422
412
408
404
390
382
377
394
385
385
382
386
396
399
388
385
382
395
384
378
368
364
362
353
330
320
309
316
291
276
258
246
235
216
194
181
175
176
157
150
143
145
150
144
137
137
148
154
145
142
138
139
136
118
102
86
84
64
31
-4
-44
-88
-143
-216
-289
-364
-421
-507
-586
-666
-735
-796
-858
-926
-980
-1028
-1056
-1102
-1138
-1175
-1201
-1223
-1253
-1298
-1329
-1360
-1374
-1419
-1456
-1496
-1526
-1552
-1581
-1609
-1622
-1620
-1605
-1602
-1578
-1546
-1493
-1426
-1356
-1267
-1149
-995
-824
-643
-432
-197
70
358
655
982
1336
1729
2132
2549
2988
3447
3925
4410
4888
5374
5856
6347
6786
7209
7603
7974
8317
8621
8883
9124
9341
9554
9720
9881
10026
10170
10309
10429
10524
10620
10703
10780
10814
10834
10828
10800
10744
10652
10527
10384
10222
10039
9811
9571
9309
9036
8742
8417
8075
7726
7380
7019
6643
6270
5898
5536
5174
4803
4443
4093
3764
3432
3100
2779
2466
2166
1871
1571
1287
1012
769
502
254
10
-218
-436
-651
-867
-1067
-1255
-1416
-1596
-1755
-1910
-2047
-2171
-2296
-2423
-2527
-2620
-2694
-2781
-2853
-2920
-2975
-3024
-3077
-3132
-3176
-3208
-3235
-3280
-3311
-3339
-3355
-3368
-3389
-3408
-3419
-3412
-3412
-3420
-3421
-3419
-3407
-3397
-3398
-3394
-3386
-3364
-3351
-3344
-3333
-3320
-3299
-3281
-3277
-3260
-3243
-3200
-3189
-3170
-3153
-3131
-3105
-3084
-3073
-3054
-3033
-2993
-2984
-2960
-2940
-2911
-2879
-2856
-2844
-2821
-2796
-2762
-2749
-2730
-2714
-2691
-2667
-2654
-2647
-2631
-2606
-2579
-2572
-2555
-2540
-2515
-2493
-2483
-2474
-2458
-2428
-2408
-2397
-2381
-2362
-2336
-2313
-2301
-2286
-2269
-2238
-2219
-2207
-2195
-2180
-2161
-2146
-2148
-2137
-2128
-2094
-2090
-2078
-2068
-2052
-2032
-2017
-2011
-1995
-1979
-1942
-1941
-1925
-1916
-1897
-1876
-1865
-1861
-1848
-1831
-1805
-1798
-1784
-1772
-1754
-1738
-1732
-1733
-1728
-1713
-1698
-1703
-1698
-1695
-1684
-1673
-1674
-1674
-1668
-1646
-1634
-1628
-1616
-1602
-1581
-1563
-1555
-1546
-1534
-1509
-1497
-1490
-1482
-1470
-1452
-1440
-1445
-1438
-1435
-1411
-1417
-1419
-1424
-1425
-1424
-1428
-1443
-1447
-1451
-1433
-1451
-1451
-1456
-1449
-1439
-1435
-1438
-1432
-1421
-1403
-1403
-1395
-1390
-1378
-1366
-1365
-1368
-1364
-1350
-1335
-1340
-1338
-1338
-1333
-1331
-1344
-1357
-1366
-1358
-1364
-1376
-1384
-1389
-1386
-1385
-1392
-1396
-1396
-1380
-1378
-1377
-1375
-1368
-1353
-1344
-1351
-1347
-1344
-1322
-1326
-1325
-1326
-1322
-1316
-1316
-1329
-1332
-1336
-1320
-1343
-1352
-1367
-1372
-1375
-1386
-1401
-1407
-1408
-1400
-1412
-1414
-1417
-1410
-1403
-1406
-1411
-1407
-1391
-1377
-1380
-1376
-1372
-1362
-1353
-1359
-1364
-1364
-1348
-1349
-1357
-1363
-1370
-1372
-1379
-1395
-1410
-1420
-1414
-1426
-1433
-1441
-1442
-1435
-1434
-1446
-1443
-1441
-1418
-1418
-1411
-1405
-1393
-1379
-1370
-1377
-1371
-1367
-1342
-1354
-1353
-1357
-1354
-1350
-1356
-1369
-1378
-1382
-1382
-1403
-1414
-1426
-1428
-1428
-1436
-1445
-1443
-1428
-1414
-1414
-1407
-1399
-1383
-1369
-1368
-1364
-1357
-1333
-1324
-1323
-1320
-1316
-1308
-1304
-1309
-1313
-1316
-1301
-1311
-1318
-1328
-1333
-1332
-1337
-1354
-1358
-1359
-1341
-1343
-1338
-1334
-1320
-1301
-1287
-1287
-1272
-1257
-1221
-1219
-1204
-1193
-1175
-1158
-1150
-1147
-1139
-1126
-1109
-1115
-1112
-1113
-1107
-1100
-1105
-1112
-1112
-1098
-1086
-1087
-1077
-1065
-1040
-1014
-998
-975
-943
-892
-852
-817
-778
-737
-690
-644
-610
-572
-533
-474
-445
-409
-378
-343
-304
-272
-254
-227
-201
-160
-141
-115
-92
-61
-25
5
23
59
99
160
193
240
287
342
398
446
489
538
593
651
687
731
770
816
860
891
917
948
988
1022
1040
1063
1086
1115
1142
1156
1175
1199
1240
1269
1293
1322
1355
1394
1433
1462
1498
1532
1588
1612
1641
1666
1694
1724
1746
1755
1769
1780
1806
1805
1809
1806
1810
1815
1811
1793
1790
1788
1803
1792
1792
1791
1798
1806
1808
1807
1815
1831
1853
1854
1864
1871
1885
1896
1893
1886
1882
1888
1886
1869
1855
1840
1832
1818
1790
1765
1741
1732
1711
1682
1656
1634
1619
1604
1578
1562
1548
1560
1541
1533
1523
1521
1525
1524
1511
1505
1499
1509
1490
1478
1461
1450
1441
1422
1390
1371
1354
1350
1321
1299
1274
1255
1235
1206
1173
1150
1136
1128
1101
1086
1073
1069
1066
1052
1039
1033
1043
1044
1035
1030
1027
1031
1029
1013
1000
987
988
976
958
940
925
913
897
866
843
819
820
787
764
740
724
713
700
679
668
660
671
654
650
642
642
646
641
624
619
616
621
603
590
572
560
548
526
499
481
471
464
435
415
393
379
364
338
314
298
300
295
284
278
277
284
289
285
284
287
303
309
308
307
307
310
307
287
275
260
268
243
226
205
189
175
156
127
105
84
84
51
36
17
11
10
3
-10
-9
-3
13
11
16
19
29
39
38
31
30
38
45
31
24
14
12
8
-9
-25
-36
-32
-40
-56
-69
-79
-80
-84
-97
-105
-108
-95
-91
-88
-82
-70
-52
-39
-43
-34
-27
4
4
10
14
23
33
38
30
30
30
51
36
36
30
34
40
37
27
28
34
48
45
51
57
73
91
100
106
122
146
170
173
184
192
208
220
217
213
212
226
225
214
206
198
197
192
175
160
149
153
144
134
126
124
130
132
119
122
126
154
156
165
172
184
198
205
200
204
207
231
217
218
213
215
219
212
199
192
189
191
174
165
154
152
151
141
128
124
133
145
140
144
150
165
179
182
188
197
222
231
232
235
239
248
253
248
243
241
253
248
241
232
226
226
218
195
185
175
186
173
168
161
162
169
172
164
171
180
213
210
222
228
243
257
262
259
261
268
279
269
267
261
262
262
249
233
223
224
223
205
196
188
190
192
182
177
179
200
207
210
218
230
248
264
269
275
282
305
304
303
297
295
297
293
273
265
257
266
253
243
231
224
221
211
187
181
176
196
181
183
182
191
201
204
203
210
221
238
233
237
237
244
248
240
226
218
220
219
200
188
175
169
160
136
115
97
96
81
62
48
38
35
32
22
16
13
31
24
25
22
26
35
37
26
24
22
34
23
15
3
-3
-6
-16
-40
-50
-60
-52
-78
-93
-113
-125
-137
-156
-177
-189
-191
-186
-200
-202
-205
-198
-188
-188
-191
-186
-169
-155
-155
-148
-141
-127
-116
-121
-123
-122
-104
-101
-105
-105
-105
-99
-97
-105
-110
-114
-95
-105
-105
-107
-99
-84
-72
-71
-60
-46
-15
-8
5
13
28
46
54
45
50
54
74
62
60
52
51
49
38
22
11
6
6
-17
-31
-46
-51
-55
-69
-82
-86
-74
-66
-70
-66
-60
-46
-34
-36
-34
-27
-4
6
9
14
18
27
32
23
20
15
32
16
7
-7
-15
-19
-30
-52
-66
-79
-74
-93
-100
-110
-109
-101
-100
-111
-105
-97
-74
-77
-71
-66
-56
-45
-44
-48
-44
-35
-22
-33
-36
-42
-42
-43
-56
-72
-81
-78
-81
-96
-104
-110
-108
-106
-116
-118
-114
-93
-79
-70
-58
-43
-23
-7
-4
7
17
50
50
59
63
72
83
86
77
74
71
83
65
56
43
37
35
25
4
-2
-3
10
3
6
9
21
36
44
48
60
79
102
103
111
117
130
141
138
133
134
145
146
133
123
113
108
98
75
57
42
42
34
21
11
6
9
11
1
3
8
40
40
50
57
69
84
91
87
90
92
112
98
97
90
90
91
82
62
52
44
45
25
13
0
-4
-7
-16
-28
-30
-21
-7
-11
-4
3
20
36
41
46
57
81
92
93
96
99
108
114
107
102
101
112
112
105
99
96
99
99
83
82
83
111
109
118
127
142
161
177
182
196
210
242
239
249
252
260
269
267
253
247
244
247
229
217
202
195
187
168
145
129
123
120
100
91
82
84
88
80
75
76
94
100
99
102
106
116
122
115
110
105
112
105
93
81
72
70
61
36
23
10
19
-2
-16
-32
-42
-47
-56
-74
-80
-83
-63
-79
-77
-80
-72
-61
-59
-64
-61
-52
-35
-38
-34
-32
-24
-17
-20
-30
-31
-24
-16
-28
-32
-37
-34
-34
-46
-57
-64
-52
-53
-60
-62
-61
-52
-44
-45
-43
-37
-17
-13
-11
-10
-4
7
12
-1
-2
-5
11
0
-6
-16
-22
-25
-34
-57
-69
-81
-73
-102
-114
-131
-138
-141
-150
-162
-165
-160
-146
-150
-144
-139
-128
-116
-116
-120
-116
-102
-90
-97
-97
-99
-93
-90
-101
-110
-116
-106
-112
-125
-136
-145
-149
-155
-169
-181
-190
-181
-189
-194
-199
-196
-185
-178
-184
-177
-172
-148
-149
-145
-143
-135
-126
-122
-132
-130
-127
-104
-119
-120
-127
-126
-125
-132
-145
-153
-154
-149
-165
-172
-181
-180
-178
-185
-194
-193
-179
-166
-169
-165
-163
-156
-153
-169
-187
-207
-217
-249
-295
-346
-402
-460
-527
-607
-688
-769
-834
-920
-1000
-1078
-1145
-1202
-1262
-1332
-1387
-1437
-1466
-1515
-1555
-1594
-1623
-1645
-1672
-1714
-1741
-1769
-1775
-1817
-1845
-1875
-1896
-1911
-1931
-1952
-1962
-1959
-1943
-1937
-1911
-1874
-1814
-1742
-1669
-1587
-1485
-1356
-1214
-1066
-890
-689
-453
-191
85
392
729
1105
1488
1887
2309
2750
3205
3664
4112
4553
4980
5405
5781
6134
6455
6754
7033
7280
7493
7694
7877
8059
8206
8348
8476
8606
8733
8845
8931
9017
9087
9157
9179
9199
9197
9183
9148
9084
8996
8895
8782
8659
8499
8336
8158
7978
7785
7567
7334
7095
6855
6601
6323
6045
5763
5485
5204
4908
4619
4337
4076
3807
3537
3277
3025
2784
2549
2310
2084
1865
1676
1464
1267
1072
890
718
545
367
203
46
-90
-244
-386
-528
-658
-781
-908
-1045
-1161
-1272
-1361
-1472
-1567
-1660
-1739
-1812
-1888
-1963
-2024
-2073
-2111
-2166
-2208
-2248
-2275
-2300
-2333
-2367
-2393
-2404
-2421
-2451
-2475
-2497
-2511
-2527
-2556
-2581
-2604
-2612
-2633
-2661
-2685
-2707
-2722
-2738
-2764
-2780
-2794
-2781
-2799
-2806
-2814
-2813
-2805
-2802
-2807
-2803
-2796
-2771
-2772
-2763
-2759
-2746
-2730
-2722
-2727
-2718
-2707
-2682
-2683
-2676
-2673
-2664
-2656
-2657
-2663
-2661
-2649
-2633
-2635
-2626
-2617
-2598
-2578
-2569
-2559
-2540
-2508
-2482
-2467
-2447
-2425
-2394
-2367
-2354
-2337
-2319
-2287
-2266
-2253
-2239
-2225
-2208
-2196
-2199
-2194
-2191
-2164
-2172
-2169
-2170
-2163
-2151
-2144
-2145
-2136
-2124
-2094
-2091
-2076
-2065
-2046
-2023
-2009
-2006
-1991
-1973
-1944
-1938
-1926
-1918
-1904
-1891
-1887
-1890
-1886
-1874
-1861
-1869
-1868
-1870
-1864
-1860
-1867
-1873
-1873
-1857
-1849
-1849
-1841
-1830
-1809
-1789
-1780
-1767
-1751
-1721
-1702
-1689
-1675
-1659
-1638
-1621
-1620
-1610
-1602
-1572
-1576
-1572
-1573
-1569
-1563
-1563
-1574
-1578
-1580
-1562
-1576
-1574
-1577
-1569
-1555
-1548
-1549
-1536
-1517
-1487
-1476
-1458
-1442
-1420
-1398
-1385
-1379
-1364
-1341
-1317
-1314
-1304
-1297
-1284
-1273
-1277
-1283
-1285
-1274
-1275
-1286
-1293
-1298
-1294
-1292
-1301
-1305
-1304
-1287
-1278
-1272
-1262
-1246
-1224
-1206
-1204
-1190
-1177
-1141
-1137
-1125
-1117
-1104
-1090
-1081
-1084
-1081
-1079
-1060
-1077
-1081
-1092
-1094
-1093
-1101
-1116
-1120
-1117
-1105
-1110
-1106
-1102
-1089
-1074
-1066
-1061
-1047
-1023
-997
-992
-980
-970
-955
-943
-946
-950
-951
-939
-941
-952
-961
-971
-975
-985
-1008
-1029
-1048
-1053
-1069
-1087
-1102
-1112
-1115
-1120
-1140
-1144
-1148
-1127
-1132
-1128
-1126
-1118
-1107
-1101
-1108
-1106
-1106
-1085
-1103
-1107
-1118
-1121
-1123
-1136
-1156
-1169
-1178
-1181
-1204
-1220
-1239
-1249
-1256
-1270
-1286
-1290
-1281
-1270
-1275
-1269
-1262
-1245
-1228
-1224
-1219
-1209
-1184
-1173
-1171
-1167
-1164
-1157
-1155
-1163
-1171
-1176
-1166
-1172
-1179
-1188
-1194
-1195
-1202
-1226
-1236
-1245
-1230
-1239
-1241
-1243
-1237
-1227
-1222
-1227
-1219
-1210
-1178
-1184
-1175
-1170
-1158
-1144
-1140
-1143
-1142
-1136
-1127
-1139
-1143
-1150
-1149
-1148
-1158
-1172
-1178
-1174
-1170
-1183
-1187
-1190
-1183
-1175
-1178
-1175
-1164
-1135
-1117
-1103
-1084
-1060
-1031
-1003
-984
-962
-938
-897
-876
-854
-835
-811
-782
-761
-755
-738
-722
-686
-675
-659
-645
-625
-602
-585
-579
-557
-533
-483
-467
-433
-400
-357
-310
-269
-231
-187
-136
-80
-44
1
45
95
145
182
215
254
302
346
372
405
436
475
510
532
556
583
626
656
681
710
744
785
825
858
894
932
989
1022
1058
1089
1124
1164
1195
1210
1233
1254
1291
1303
1317
1327
1341
1356
1364
1356
1363
1368
1393
1384
1387
1387
1395
1404
1407
1404
1410
1423
1443
1443
1453
1463
1481
1500
1507
1509
1517
1536
1551
1549
1553
1554
1561
1564
1552
1542
1535
1543
1536
1521
1509
1498
1492
1484
1465
1451
1440
1451
1436
1429
1422
1425
1435
1441
1439
1448
1460
1489
1494
1504
1510
1522
1536
1542
1532
1538
1544
1568
1561
1564
1563
1567
1569
1562
1548
1541
1539
1542
1523
1514
1503
1502
1501
1490
1479
1477
1488
1496
1492
1496
1501
1515
1526
1521
1520
1521
1537
1538
1531
1525
1520
1519
1514
1496
1482
1466
1471
1444
1425
1402
1385
1373
1355
1328
1310
1294
1296
1275
1263
1249
1244
1245
1240
1223
1221
1221
1236
1224
1219
1210
1207
1202
1188
1167
1153
1145
1141
1115
1097
1076
1061
1045
1016
985
961
950
935
908
889
873
867
859
840
828
821
832
834
830
829
831
836
838
826
821
813
828
808
796
781
771
764
749
723
702
680
674
639
615
587
569
555
535
504
490
481
488
474
471
467
473
481
481
477
482
495
511
505
508
506
511
515
504
491
484
489
485
469
456
444
439
430
408
391
380
384
379
369
363
362
368
371
362
364
366
393
387
388
386
388
392
388
372
361
349
354
327
312
291
277
267
247
217
198
181
176
150
133
115
107
100
87
71
65
68
75
63
60
56
60
62
51
39
32
39
34
19
6
-5
-11
-19
-41
-58
-72
-73
-83
-99
-113
-124
-129
-136
-158
-166
-172
-151
-159
-157
-156
-149
-138
-130
-134
-131
-128
-105
-116
-114
-119
-115
-109
-113
-128
-133
-135
-130
-143
-150
-159
-161
-162
-173
-188
-194
-192
-187
-201
-206
-210
-206
-201
-208
-213
-212
-195
-190
-195
-198
-200
-198
-201
-221
-243
-268
-286
-325
-377
-437
-503
-572
-651
-753
-846
-945
-1022
-1132
-1233
-1335
-1428
-1513
-1599
-1694
-1775
-1852
-1904
-1988
-2051
-2117
-2170
-2219
-2275
-2336
-2385
-2426
-2456
-2500
-2532
-2559
-2569
-2568
-2564
-2549
-2511
-2447
-2367
-2289
-2187
-2070
-1927
-1768
-1601
-1411
-1191
-928
-651
-355
-29
324
707
1111
1529
1971
2437
2933
3432
3941
4463
4995
5535
6061
6555
7039
7493
7937
8319
8672
8987
9273
9532
9760
9954
10141
10315
10501
10646
10802
10946
11090
11224
11336
11426
11503
11563
11603
11593
11558
11489
11396
11272
11105
10905
10686
10451
10191
9888
9571
9234
8888
8526
8142
7754
7365
6989
6599
6203
5814
5431
5059
4692
4323
3964
3618
3295
2965
2645
2334
2040
1763
1494
1221
969
727
514
287
75
-130
-321
-498
-671
-847
-1000
-1143
-1254
-1394
-1513
-1630
-1734
-1832
-1934
-2037
-2129
-2210
-2280
-2365
-2436
-2506
-2563
-2616
-2675
-2734
-2780
-2810
-2837
-2877
-2905
-2929
-2941
-2951
-2972
-2987
-2995
-2985
-2988
-2996
-3000
-3001
-2998
-2997
-3007
-3017
-3027
-3023
-3041
-3059
-3079
-3093
-3101
-3114
-3140
-3153
-3163
-3153
-3164
-3168
-3170
-3164
-3152
-3144
-3147
-3133
-3116
-3076
-3070
-3049
-3032
-3006
-2980
-2961
-2947
-2927
-2903
-2873
-2867
-2854
-2847
-2834
-2824
-2827
-2833
-2833
-2821
-2811
-2816
-2812
-2808
-2793
-2779
-2776
-2767
-2752
-2719
-2698
-2681
-2659
-2634
-2603
-2574
-2555
-2534
-2513
-2473
-2459
-2441
-2428
-2410
-2388
-2375
-2379
-2376
-2375
-2359
-2369
-2373
-2381
-2381
-2376
-2376
-2388
-2383
-2376
-2346
-2345
-2330
-2317
-2294
-2267
-2248
-2232
-2208
-2178
-2141
-2127
-2103
-2083
-2057
-2033
-2022
-2016
-2005
-1985
-1972
-1977
-1976
-1978
-1972
-1969
-1980
-1986
-1987
-1969
-1962
-1959
-1950
-1936
-1914
-1892
-1880
-1863
-1844
-1802
-1789
-1768
-1750
-1727
-1698
-1677
-1670
-1655
-1642
-1615
-1613
-1606
-1604
-1597
-1588
-1589
-1607
-1610
-1612
-1596
-1608
-1608
-1608
-1600
-1588
-1583
-1580
-1568
-1547
-1520
-1515
-1500
-1487
-1465
-1444
-1436
-1430
-1418
-1396
-1380
-1380
-1376
-1374
-1366
-1363
-1376
-1388
-1399
-1396
-1405
-1423
-1438
-1450
-1457
-1466
-1485
-1496
-1503
-1486
-1498
-1499
-1500
-1494
-1483
-1476
-1480
-1474
-1466
-1442
-1443
-1435
-1433
-1423
-1411
-1408
-1421
-1422
-1423
-1411
-1428
-1437
-1448
-1453
-1457
-1469
-1485
-1493
-1493
-1487
-1501
-1502
-1503
-1494
-1484
-1482
-1479
-1468
-1444
-1426
-1419
-1406
-1392
-1370
-1350
-1343
-1332
-1318
-1290
-1273
-1266
-1258
-1249
-1236
-1228
-1234
-1231
-1228
-1201
-1205
-1199
-1195
-1183
-1165
-1151
-1146
-1131
-1113
-1076
-1065
-1042
-1025
-998
-970
-951
-946
-929
-913
-887
-886
-879
-876
-868
-861
-865
-876
-881
-879
-875
-892
-900
-910
-910
-909
-917
-923
-921
-903
-891
-888
-879
-866
-844
-824
-816
-805
-793
-766
-752
-746
-740
-734
-725
-720
-732
-735
-738
-718
-732
-739
-749
-755
-757
-765
-782
-791
-797
-783
-797
-795
-798
-789
-776
-770
-773
-762
-747
-722
-718
-706
-698
-683
-669
-668
-672
-670
-661
-650
-660
-661
-664
-659
-655
-664
-672
-675
-662
-658
-662
-659
-651
-632
-613
-602
-585
-563
-525
-496
-472
-445
-414
-378
-347
-332
-305
-279
-230
-214
-192
-172
-148
-121
-99
-87
-66
-45
-4
2
21
34
57
82
100
110
133
162
201
223
253
282
319
358
389
416
451
493
537
559
588
615
647
677
691
704
721
752
769
778
789
801
819
833
835
839
846
867
878
886
896
911
933
953
958
976
994
1035
1047
1065
1079
1098
1118
1133
1135
1146
1156
1184
1174
1177
1173
1177
1182
1177
1165
1160
1160
1166
1152
1145
1137
1137
1139
1133
1125
1128
1143
1160
1160
1170
1179
1197
1213
1215
1217
1223
1245
1251
1249
1250
1250
1256
1257
1248
1239
1231
1238
1229
1218
1205
1196
1192
1182
1155
1141
1127
1136
1120
1112
1105
1106
1111
1111
1101
1104
1107
1131
1116
1117
1111
1113
1115
1108
1093
1083
1076
1073
1049
1031
1010
995
981
955
925
903
892
880
852
832
813
805
796
776
760
751
760
757
750
747
745
750
751
742
733
726
734
722
710
695
685
679
667
638
621
603
603
579
561
542
530
523
510
487
479
472
490
472
473
471
479
490
493
491
495
504
519
512
513
511
515
520
514
505
503
511
517
507
503
497
499
499
485
474
467
479
478
474
473
477
488
499
502
509
519
548
555
566
574
586
603
612
605
608
611
631
628
630
628
632
639
637
620
616
612
628
610
604
595
594
595
588
578
575
580
591
583
585
587
598
609
610
606
610
623
632
624
621
616
618
618
603
593
585
594
589
575
564
554
549
543
527
516
509
523
513
511
509
514
525
532
526
532
538
560
558
562
560
564
569
565
545
539
532
543
522
513
499
492
484
466
443
424
413
407
380
364
349
344
342
330
318
316
327
335
329
330
332
341
348
339
335
331
343
338
324
310
296
284
269
242
218
194
192
158
132
102
79
62
41
11
-8
-23
-18
-35
-40
-48
-46
-39
-38
-51
-47
-43
-24
-32
-32
-37
-37
-38
-49
-67
-79
-84
-86
-110
-123
-140
-148
-157
-179
-203
-219
-222
-227
-244
-252
-256
-249
-243
-248
-247
-242
-218
-207
-203
-198
-190
-179
-170
-176
-177
-179
-159
-174
-181
-192
-197
-198
-206
-224
-235
-246
-240
-260
-270
-283
-286
-284
-289
-304
-301
-294
-270
-269
-258
-248
-230
-213
-204
-200
-189
-171
-150
-152
-147
-145
-138
-134
-144
-157
-165
-161
-165
-182
-194
-205
-208
-213
-230
-241
-246
-235
-233
-234
-231
-224
-209
-197
-197
-187
-179
-147
-150
-144
-143
-137
-129
-128
-138
-143
-149
-138
-157
-166
-180
-185
-187
-198
-220
-228
-233
-226
-239
-244
-250
-248
-243
-246
-252
-247
-234
-216
-217
-209
-204
-192
-181
-184
-188
-188
-175
-173
-182
-187
-192
-190
-192
-208
-221
-233
-231
-240
-256
-270
-280
-283
-288
-305
-310
-314
-290
-296
-291
-285
-271
-251
-236
-229
-216
-202
-169
-168
-155
-149
-134
-116
-108
-110
-102
-90
-69
-69
-62
-57
-45
-33
-30
-32
-24
-6
15
18
32
46
69
93
106
120
141
177
202
218
236
256
282
304
314
324
337
362
375
381
388
397
410
417
406
407
406
429
422
422
421
428
439
446
444
451
460
490
485
497
506
524
544
555
557
567
581
599
598
602
602
610
617
613
603
601
606
610
592
581
568
561
553
533
516
505
512
507
496
491
490
496
501
498
498
501
518
522
520
518
519
523
521
500
491
480
491
472
458
441
429
418
400
371
352
331
333
298
282
262
253
248
236
219
211
210
219
210
211
209
214
220
215
205
202
206
208
189
175
160
152
143
120
98
80
78
60
36
15
-4
-15
-26
-44
-58
-64
-54
-56
-57
-58
-52
-39
-32
-40
-35
-31
-6
-8
-6
-8
-6
-4
-10
-30
-40
-51
-41
-70
-84
-103
-113
-123
-141
-164
-179
-186
-186
-203
-208
-214
-209
-201
-203
-207
-203
-187
-172
-174
-168
-162
-148
-136
-140
-143
-143
-128
-130
-139
-146
-152
-153
-158
-173
-188
-200
-197
-214
-229
-244
-252
-252
-255
-271
-272
-270
-247
-246
-238
-231
-219
-203
-196
-203
-197
-192
-167
-180
-179
-184
-184
-184
-194
-210
-221
-227
-229
-252
-265
-280
-288
-295
-312
-329
-337
-332
-326
-333
-330
-326
-312
-299
-298
-294
-287
-265
-258
-259
-258
-256
-250
-247
-255
-262
-269
-258
-271
-281
-293
-299
-299
-306
-325
-333
-340
-328
-337
-340
-344
-339
-329
-323
-329
-317
-303
-267
-262
-246
-233
-214
-195
-186
-182
-173
-160
-144
-150
-148
-150
-146
-142
-151
-164
-170
-165
-164
-178
-186
-192
-190
-187
-198
-202
-201
-181
-173
-169
-160
-149
-131
-116
-111
-105
-98
-73
-77
-75
-79
-77
-71
-72
-87
-93
-100
-91
-106
-115
-128
-134
-136
-145
-167
-172
-173
-154
-162
-157
-153
-140
-125
-116
-109
-94
-73
-47
-43
-30
-19
0
17
22
25
35
56
72
74
82
90
104
115
111
111
113
132
139
140
145
154
169
182
185
195
206
242
248
264
277
295
318
333
336
345
352
373
367
367
361
362
366
362
343
338
334
343
324
314
300
294
288
275
259
251
252
259
245
242
237
243
249
246
242
244
259
268
263
263
262
267
269
256
248
243
253
250
239
230
222
216
206
182
165
148
156
133
120
106
101
101
96
84
80
79
96
87
89
85
91
100
101
89
89
91
103
92
87
80
79
78
67
50
39
34
32
7
-9
-28
-39
-49
-70
-90
-103
-102
-107
-123
-132
-138
-137
-141
-160
-177
-195
-203
-227
-266
-310
-359
-410
-470
-550
-625
-702
-757
-844
-923
-1003
-1075
-1142
-1211
-1289
-1356
-1420
-1462
-1531
-1584
-1640
-1683
-1718
-1760
-1809
-1845
-1877
-1899
-1941
-1974
-2008
-2031
-2052
-2079
-2107
-2125
-2133
-2132
-2145
-2139
-2123
-2085
-2036
-1987
-1927
-1850
-1747
-1641
-1530
-1395
-1237
-1047
-832
-603
-342
-50
281
626
989
1378
1792
2230
2677
3117
3572
4019
4476
4882
5273
5635
5974
6290
6574
6825
7062
7279
7496
7661
7827
7973
8118
8256
8377
8477
8573
8657
8732
8768
8794
8799
8794
8769
8715
8635
8547
8450
8339
8195
8047
7885
7719
7540
7336
7118
6893
6671
6425
6162
5896
5626
5358
5082
4792
4504
4218
3948
3671
3394
3123
2862
2614
2368
2113
1878
1651
1455
1236
1032
832
643
464
286
103
-64
-224
-358
-523
-667
-811
-940
-1063
-1190
-1320
-1438
-1546
-1643
-1754
-1853
-1950
-2034
-2113
-2196
-2278
-2345
-2398
-2444
-2503
-2546
-2584
-2610
-2633
-2665
-2693
-2712
-2712
-2723
-2738
-2746
-2751
-2747
-2744
-2751
-2756
-2759
-2750
-2756
-2766
-2777
-2785
-2788
-2798
-2824
-2837
-2850
-2841
-2857
-2866
-2875
-2876
-2871
-2868
-2874
-2866
-2856
-2822
-2824
-2810
-2799
-2779
-2757
-2742
-2734
-2718
-2697
-2669
-2662
-2648
-2638
-2621
-2606
-2603
-2604
-2597
-2581
-2564
-2564
-2555
-2545
-2526
-2507
-2499
-2487
-2467
-2429
-2403
-2380
-2352
-2321
-2282
-2245
-2216
-2186
-2153
-2106
-2076
-2046
-2019
-1987
-1951
-1921
-1909
-1886
-1866
-1829
-1818
-1804
-1795
-1780
-1763
-1752
-1752
-1739
-1723
-1684
-1680
-1659
-1641
-1612
-1579
-1552
-1531
-1502
-1467
-1426
-1406
-1379
-1357
-1328
-1299
-1283
-1272
-1253
-1226
-1203
-1199
-1190
-1185
-1174
-1168
-1177
-1184
-1188
-1174
-1175
-1181
-1182
-1179
-1169
-1159
-1156
-1150
-1140
-1110
-1101
-1087
-1074
-1055
-1030
-1015
-1017
-1008
-1001
-976
-976
-972
-970
-964
-955
-954
-970
-973
-978
-963
-986
-995
-1008
-1012
-1013
-1021
-1032
-1035
-1029
-1016
-1023
-1018
-1013
-999
-984
-979
-977
-966
-944
-926
-926
-921
-918
-909
-903
-914
-922
-930
-922
-930
-947
-961
-975
-986
-999
-1022
-1041
-1056
-1050
-1066
-1074
-1082
-1080
-1071
-1066
-1073
-1067
-1061
-1037
-1036
-1029
-1024
-1014
-1001
-998
-1010
-1010
-1012
-997
-1015
-1022
-1034
-1039
-1045
-1059
-1080
-1096
-1107
-1112
-1139
-1155
-1172
-1178
-1182
-1195
-1208
-1212
-1202
-1195
-1202
-1202
-1203
-1196
-1192
-1201
-1206
-1209
-1196
-1197
-1206
-1214
-1222
-1227
-1236
-1258
-1276
-1294
-1291
-1319
-1338
-1361
-1377
-1387
-1402
-1427
-1440
-1450
-1441
-1453
-1455
-1459
-1453
-1441
-1436
-1446
-1439
-1433
-1409
-1415
-1411
-1412
-1408
-1404
-1409
-1421
-1427
-1428
-1425
-1444
-1454
-1468
-1472
-1477
-1493
-1511
-1521
-1517
-1517
-1529
-1532
-1533
-1524
-1515
-1518
-1514
-1506
-1480
-1466
-1459
-1450
-1439
-1425
-1414
-1418
-1417
-1416
-1393
-1403
-1405
-1411
-1411
-1408
-1411
-1425
-1432
-1438
-1427
-1442
-1447
-1456
-1454
-1447
-1446
-1456
-1448
-1436
-1405
-1397
-1378
-1360
-1335
-1311
-1295
-1286
-1270
-1250
-1227
-1227
-1219
-1215
-1203
-1193
-1195
-1199
-1198
-1184
-1178
-1184
-1185
-1184
-1174
-1165
-1168
-1165
-1156
-1130
-1112
-1100
-1082
-1060
-1031
-1002
-986
-960
-936
-887
-872
-848
-829
-804
-778
-758
-749
-733
-716
-682
-675
-658
-645
-622
-595
-576
-568
-544
-515
-472
-447
-411
-374
-326
-275
-231
-189
-137
-76
-9
37
92
144
203
260
302
341
383
438
483
517
554
593
638
680
708
739
771
817
852
880
909
941
979
1015
1037
1069
1103
1163
1191
1230
1266
1308
1355
1395
1424
1459
1493
1544
1560
1586
1603
1627
1653
1667
1670
1684
1699
1721
1721
1726
1727
1735
1742
1740
1734
1737
1750
1766
1763
1770
1778
1795
1811
1815
1819
1829
1853
1867
1870
1877
1885
1899
1908
1903
1899
1896
1906
1904
1894
1886
1879
1876
1868
1843
1828
1811
1817
1792
1776
1757
1746
1739
1728
1709
1700
1693
1707
1688
1686
1677
1678
1682
1676
1660
1654
1651
1654
1636
1623
1606
1595
1583
1560
1533
1513
1501
1490
1459
1435
1409
1390
1371
1341
1314
1293
1291
1280
1263
1251
1242
1242
1239
1226
1215
1207
1213
1207
1197
1187
1180
1177
1168
1141
1126
1108
1112
1086
1065
1041
1022
1005
982
948
925
901
900
864
845
824
815
810
800
784
778
780
790
781
780
776
780
784
776
763
757
759
759
739
726
711
702
691
666
641
621
616
597
570
547
526
513
499
477
459
447
453
446
440
436
439
449
453
441
441
439
458
451
447
441
438
437
428
406
393
380
389
359
344
324
312
302
284
259
243
234
232
213
204
196
199
205
203
199
206
222
236
233
236
238
246
252
243
234
228
238
230
215
201
188
180
167
145
123
104
101
80
62
44
33
31
25
6
3
1
21
20
26
29
38
49
53
42
43
43
63
46
42
33
30
27
15
-3
-15
-23
-24
-47
-60
-75
-81
-84
-95
-107
-108
-95
-82
-83
-75
-65
-45
-25
-18
-8
6
35
47
51
56
61
70
74
67
61
54
64
49
37
22
12
8
-2
-25
-36
-44
-30
-36
-34
-32
-21
-4
8
10
28
48
91
99
118
132
152
170
178
178
181
187
196
182
175
164
158
148
122
88
55
27
-13
-75
-137
-204
-266
-332
-414
-493
-570
-630
-702
-779
-851
-917
-978
-1041
-1116
-1187
-1256
-1305
-1382
-1455
-1531
-1603
-1668
-1738
-1817
-1882
-1942
-1982
-2039
-2083
-2121
-2142
-2148
-2146
-2143
-2107
-2054
-1965
-1889
-1783
-1662
-1513
-1343
-1158
-954
-719
-452
-155
145
476
826
1204
1604
2012
2436
2884
3359
3843
4324
4818
5313
5807
6283
6724
7144
7538
7920
8257
8559
8836
9093
9334
9556
9751
9939
10119
10315
10474
10633
10776
10914
11041
11144
11213
11265
11286
11289
11234
11153
11034
10891
10721
10512
10262
10003
9721
9432
9095
8749
8385
8018
7644
7257
6862
6474
6096
5726
5341
4971
4607
4258
3916
3570
3230
2905
2600
2297
1990
1698
1415
1149
889
624
373
135
-78
-292
-503
-700
-885
-1055
-1216
-1380
-1527
-1664
-1767
-1893
-2001
-2103
-2190
-2267
-2343
-2423
-2490
-2553
-2594
-2660
-2714
-2769
-2813
-2851
-2894
-2948
-2985
-3019
-3037
-3078
-3108
-3137
-3157
-3174
-3197
-3221
-3235
-3240
-3238
-3256
-3264
-3271
-3270
-3268
-3276
-3285
-3285
-3271
-3264
-3268
-3267
-3265
-3256
-3250
-3258
-3261
-3261
-3246
-3241
-3242
-3240
-3233
-3221
-3209
-3211
-3203
-3193
-3157
-3152
-3137
-3124
-3103
-3078
-3059
-3049
-3032
-3014
-2979
-2973
-2956
-2945
-2924
-2899
-2884
-2881
-2866
-2849
-2821
-2816
-2803
-2792
-2775
-2756
-2744
-2736
-2720
-2694
-2665
-2656
-2638
-2621
-2596
-2572
-2560
-2550
-2532
-2502
-2481
-2472
-2458
-2443
-2422
-2403
-2397
-2387
-2375
-2349
-2332
-2321
-2310
-2296
-2278
-2265
-2265
-2255
-2245
-2211
-2208
-2196
-2185
-2168
-2147
-2132
-2126
-2113
-2100
-2068
-2070
-2059
-2054
-2041
-2025
-2019
-2023
-2018
-2009
-1991
-1993
-1987
-1983
-1971
-1957
-1952
-1952
-1942
-1923
-1901
-1897
-1884
-1871
-1848
-1825
-1812
-1799
-1779
-1744
-1721
-1707
-1690
-1672
-1648
-1627
-1618
-1606
-1591
-1563
-1546
-1534
-1520
-1502
-1477
-1457
-1451
-1432
-1411
-1365
-1348
-1323
-1301
-1272
-1240
-1214
-1199
-1175
-1150
-1105
-1095
-1070
-1052
-1026
-999
-984
-979
-967
-954
-937
-940
-938
-938
-932
-925
-929
-936
-935
-923
-911
-916
-912
-908
-895
-881
-880
-876
-867
-843
-833
-830
-822
-812
-796
-782
-779
-774
-766
-746
-741
-742
-745
-745
-741
-744
-763
-768
-774
-757
-768
-772
-776
-775
-770
-769
-778
-775
-772
-746
-757
-751
-750
-741
-730
-728
-734
-733
-727
-715
-722
-723
-727
-726
-726
-738
-757
-768
-770
-772
-791
-802
-813
-814
-815
-829
-839
-843
-830
-828
-833
-834
-832
-823
-816
-817
-818
-815
-799
-800
-802
-806
-806
-800
-801
-819
-825
-834
-825
-843
-858
-876
-888
-897
-911
-936
-947
-955
-940
-959
-962
-966
-960
-951
-949
-952
-947
-935
-916
-918
-911
-907
-896
-886
-887
-894
-894
-886
-879
-891
-897
-905
-906
-911
-932
-952
-968
-966
-978
-994
-1005
-1011
-1009
-1005
-1009
-1008
-1003
-980
-976
-968
-961
-947
-926
-911
-911
-899
-888
-860
-857
-849
-846
-838
-827
-825
-837
-838
-839
-819
-837
-839
-844
-841
-835
-836
-839
-832
-817
-794
-789
-772
-757
-732
-707
-692
-681
-661
-630
-601
-588
-568
-548
-521
-497
-488
-477
-463
-433
-419
-411
-400
-388
-370
-355
-348
-338
-325
-291
-279
-259
-239
-210
-172
-138
-115
-82
-48
3
31
65
95
131
171
203
219
250
279
326
338
362
381
405
429
443
451
465
485
510
514
529
542
564
590
606
621
645
684
721
742
769
796
830
861
875
892
911
944
962
972
982
993
1005
1013
1007
1004
999
1014
999
991
978
973
973
969
954
949
948
964
959
964
967
979
995
1004
998
1006
1015
1040
1034
1037
1036
1041
1045
1040
1029
1024
1024
1027
1007
995
979
971
963
943
923
913
918
920
910
909
912
925
939
941
951
966
999
1020
1035
1052
1070
1091
1106
1107
1112
1115
1140
1131
1130
1124
1122
1123
1115
1094
1080
1065
1065
1040
1025
1008
999
995
984
962
956
953
968
958
959
959
967
975
976
971
973
980
991
978
974
966
965
963
948
930
918
917
907
884
865
847
836
824
799
781
768
774
771
763
760
761
768
775
770
773
778
806
802
807
807
813
820
820
807
800
792
801
781
770
754
745
738
722
693
678
666
669
650
642
634
635
639
636
630
634
647
665
662
668
673
685
696
694
689
689
700
699
686
676
665
662
655
635
619
604
603
592
573
558
546
541
535
518
513
510
534
526
529
530
538
547
551
544
543
542
559
542
536
522
515
509
493
463
445
430
424
397
376
353
336
321
297
271
255
249
249
231
225
219
224
228
222
216
216
231
235
229
227
227
233
235
223
214
207
212
204
189
175
163
155
143
115
98
81
89
65
51
37
30
29
26
14
13
14
36
27
32
32
40
51
51
42
42
46
57
49
47
41
42
42
31
15
6
5
5
-15
-27
-40
-44
-47
-61
-74
-79
-67
-65
-69
-67
-60
-45
-32
-30
-25
-18
2
10
13
15
18
26
29
14
11
6
23
8
-1
-13
-21
-26
-37
-59
-70
-80
-68
-91
-98
-109
-109
-104
-106
-114
-111
-101
-83
-85
-80
-77
-68
-60
-63
-73
-74
-66
-59
-73
-80
-89
-92
-98
-118
-138
-154
-153
-165
-184
-198
-208
-210
-213
-224
-231
-232
-216
-211
-207
-200
-187
-168
-155
-159
-152
-146
-120
-124
-122
-123
-121
-117
-119
-134
-138
-144
-129
-152
-159
-172
-176
-177
-185
-196
-196
-189
-173
-173
-163
-154
-134
-111
-96
-83
-61
-29
4
18
39
58
83
105
111
118
128
154
164
166
170
175
185
192
188
184
184
199
199
200
202
211
227
239
236
246
258
291
301
316
329
347
367
380
379
389
397
424
413
414
410
414
419
415
404
398
396
400
383
373
361
357
356
345
333
331
341
351
345
347
350
362
372
370
371
376
399
406
405
407
409
416
420
413
407
403
417
408
401
390
384
382
373
349
336
325
333
320
313
305
306
311
311
298
300
304
329
319
322
321
328
335
332
322
318
319
325
309
301
291
288
285
271
252
239
236
230
208
194
181
177
172
156
147
142
157
159
156
158
162
171
177
173
172
172
191
182
179
171
168
168
161
140
127
114
117
96
80
60
47
37
21
-7
-18
-27
-13
-29
-30
-32
-24
-15
-12
-13
-8
4
20
15
18
19
26
32
24
12
5
8
6
-13
-26
-40
-47
-57
-81
-100
-115
-113
-124
-139
-149
-155
-154
-152
-158
-157
-153
-126
-127
-121
-119
-110
-97
-92
-100
-101
-102
-88
-99
-103
-112
-115
-116
-124
-148
-155
-161
-150
-168
-175
-184
-185
-184
-190
-200
-201
-194
-181
-189
-185
-182
-169
-155
-154
-155
-150
-133
-123
-128
-127
-126
-119
-115
-128
-137
-144
-136
-140
-153
-164
-174
-179
-187
-207
-219
-230
-215
-231
-235
-241
-239
-229
-223
-225
-216
-205
-177
-175
-164
-158
-144
-128
-122
-130
-124
-118
-98
-105
-105
-109
-109
-110
-121
-137
-147
-150
-147
-165
-172
-179
-176
-173
-180
-186
-183
-166
-153
-150
-140
-129
-109
-92
-89
-81
-72
-49
-39
-37
-35
-32
-24
-21
-34
-39
-47
-32
-52
-64
-79
-88
-93
-101
-118
-126
-132
-118
-130
-130
-133
-125
-111
-104
-108
-97
-83
-58
-55
-45
-38
-25
-12
-7
-9
-2
12
28
22
24
22
26
28
16
2
-6
1
0
-9
-12
-11
-2
6
3
6
14
38
54
64
77
91
111
125
122
129
133
160
153
155
153
158
165
165
155
150
145
158
138
131
119
117
122
119
107
110
119
139
140
151
161
179
199
210
215
229
251
274
276
285
290
300
308
301
293
290
300
299
287
277
268
264
257
237
223
213
219
217
212
211
216
229
239
235
245
256
291
295
307
317
331
345
352
346
347
345
362
342
336
323
317
314
299
275
260
248
243
220
206
191
186
183
173
161
159
166
176
165
162
155
152
143
117
85
53
28
-18
-79
-143
-211
-277
-349
-435
-518
-597
-661
-735
-810
-882
-948
-1007
-1068
-1142
-1200
-1257
-1289
-1346
-1392
-1437
-1475
-1508
-1546
-1596
-1636
-1675
-1692
-1746
-1783
-1822
-1849
-1871
-1900
-1933
-1952
-1958
-1946
-1942
-1917
-1883
-1831
-1767
-1701
-1625
-1525
-1397
-1246
-1089
-897
-677
-423
-143
151
470
817
1206
1603
2011
2435
2868
3309
3741
4149
4541
4915
5279
5604
5902
6177
6435
6680
6899
7084
7267
7435
7611
7752
7890
8017
8139
8250
8340
8401
8456
8495
8538
8524
8506
8465
8414
8346
8251
8133
8006
7871
7727
7549
7367
7169
6965
6749
6512
6261
6011
5765
5513
5241
4973
4703
4439
4174
3898
3627
3366
3126
2878
2630
2392
2165
1952
1743
1534
1333
1142
973
790
614
441
279
127
-26
-190
-336
-478
-597
-734
-862
-988
-1104
-1213
-1323
-1442
-1543
-1639
-1709
-1810
-1891
-1971
-2036
-2095
-2156
-2216
-2264
-2300
-2324
-2362
-2386
-2411
-2424
-2435
-2455
-2477
-2491
-2493
-2498
-2518
-2531
-2543
-2546
-2551
-2570
-2586
-2599
-2594
-2605
-2623
-2635
-2645
-2646
-2646
-2652
-2654
-2650
-2626
-2622
-2611
-2600
-2581
-2553
-2528
-2518
-2495
-2472
-2432
-2415
-2394
-2379
-2358
-2335
-2319
-2319
-2304
-2290
-2258
-2262
-2254
-2252
-2245
-2239
-2243
-2251
-2253
-2247
-2235
-2243
-2240
-2238
-2225
-2210
-2205
-2201
-2186
-2158
-2131
-2118
-2097
-2075
-2045
-2016
-2003
-1986
-1968
-1934
-1915
-1904
-1890
-1876
-1858
-1844
-1843
-1840
-1838
-1817
-1824
-1825
-1828
-1824
-1811
-1803
-1806
-1797
-1785
-1755
-1746
-1729
-1713
-1689
-1662
-1641
-1634
-1611
-1588
-1546
-1538
-1519
-1507
-1488
-1470
-1461
-1458
-1449
-1435
-1417
-1422
-1419
-1419
-1413
-1408
-1412
-1418
-1415
-1397
-1382
-1378
-1365
-1350
-1325
-1302
-1292
-1277
-1258
-1222
-1199
-1184
-1165
-1145
-1121
-1101
-1093
-1083
-1074
-1044
-1045
-1041
-1042
-1037
-1030
-1030
-1043
-1048
-1053
-1043
-1057
-1062
-1070
-1069
-1062
-1061
-1071
-1063
-1053
-1025
-1023
-1010
-999
-982
-965
-956
-951
-941
-926
-909
-916
-915
-920
-918
-918
-932
-949
-960
-962
-970
-992
-1009
-1025
-1032
-1041
-1062
-1077
-1085
-1074
-1073
-1076
-1072
-1065
-1050
-1036
-1035
-1027
-1020
-988
-990
-983
-981
-974
-964
-962
-973
-978
-984
-976
-996
-1008
-1026
-1036
-1043
-1058
-1086
-1099
-1107
-1100
-1116
-1121
-1126
-1121
-1114
-1113
-1116
-1108
-1092
-1071
-1074
-1067
-1064
-1055
-1046
-1051
-1059
-1061
-1052
-1051
-1065
-1075
-1085
-1090
-1098
-1121
-1139
-1155
-1156
-1167
-1184
-1197
-1207
-1210
-1215
-1231
-1236
-1239
-1216
-1225
-1224
-1225
-1220
-1213
-1213
-1224
-1228
-1232
-1219
-1237
-1243
-1255
-1258
-1259
-1269
-1292
-1302
-1311
-1309
-1330
-1344
-1361
-1370
-1379
-1395
-1414
-1423
-1422
-1416
-1427
-1428
-1428
-1419
-1408
-1408
-1407
-1401
-1381
-1372
-1375
-1373
-1371
-1362
-1357
-1366
-1372
-1374
-1361
-1359
-1363
-1365
-1365
-1361
-1360
-1374
-1377
-1380
-1356
-1362
-1357
-1352
-1340
-1321
-1307
-1300
-1284
-1264
-1223
-1213
-1188
-1169
-1141
-1111
-1090
-1081
-1062
-1042
-1014
-1008
-996
-987
-971
-957
-952
-954
-949
-937
-924
-931
-930
-930
-921
-909
-908
-905
-893
-865
-846
-833
-815
-791
-758
-727
-706
-682
-654
-613
-583
-560
-537
-511
-481
-455
-446
-426
-407
-364
-353
-335
-321
-301
-279
-261
-254
-235
-214
-169
-157
-126
-98
-59
-15
21
51
92
140
195
231
274
316
364
412
448
478
515
558
602
624
654
682
715
746
762
777
795
828
846
857
873
891
918
943
960
979
1004
1043
1070
1095
1120
1150
1185
1214
1227
1251
1274
1316
1327
1342
1353
1367
1382
1390
1385
1389
1393
1417
1402
1401
1393
1394
1396
1390
1379
1377
1382
1396
1393
1399
1404
1419
1435
1443
1446
1457
1479
1500
1503
1513
1522
1536
1546
1541
1536
1534
1547
1544
1533
1524
1516
1513
1506
1488
1471
1456
1456
1442
1428
1415
1411
1415
1414
1400
1401
1402
1426
1425
1430
1433
1441
1451
1456
1446
1446
1446
1467
1449
1444
1433
1430
1427
1414
1395
1382
1374
1371
1347
1332
1313
1304
1296
1280
1262
1256
1261
1268
1260
1261
1262
1272
1279
1271
1264
1261
1273
1267
1254
1242
1231
1224
1212
1189
1167
1146
1141
1115
1090
1064
1045
1031
1012
979
958
938
939
916
900
885
877
874
865
845
839
834
849
827
819
806
799
792
776
754
737
725
718
689
668
644
628
613
586
555
533
521
508
479
460
442
434
425
405
390
380
390
387
379
376
375
378
379
370
363
357
369
357
348
336
329
326
316
291
275
260
261
241
226
210
201
197
189
169
167
168
191
184
192
200
217
238
253
262
279
300
327
332
345
353
368
382
383
381
385
400
410
403
401
397
399
398
383
373
366
378
378
372
371
373
382
390
389
393
400
428
428
434
437
446
458
463
453
451
447
458
445
439
428
424
423
414
389
379
369
376
354
343
331
327
326
317
306
304
309
319
309
311
313
324
334
334
331
334
349
358
350
347
342
343
341
326
314
304
310
302
285
270
254
243
229
205
187
171
180
159
150
139
136
140
139
129
128
129
148
143
146
145
151
159
158
141
138
134
145
129
121
109
104
97
81
59
43
34
30
6
-6
-17
-17
-15
-21
-26
-23
-6
5
5
11
19
33
45
43
44
48
64
67
60
54
49
49
44
26
15
3
15
-6
-18
-34
-43
-46
-54
-69
-75
-78
-60
-69
-64
-64
-55
-41
-35
-42
-36
-28
-8
-13
-11
-13
-10
-8
-16
-30
-38
-38
-36
-55
-65
-77
-82
-88
-106
-124
-135
-131
-135
-147
-153
-155
-146
-138
-140
-136
-127
-104
-91
-86
-78
-69
-54
-43
-49
-45
-43
-18
-28
-30
-37
-39
-38
-43
-59
-67
-75
-64
-85
-93
-105
-107
-104
-108
-120
-116
-107
-86
-83
-70
-58
-38
-19
-8
-3
11
32
55
55
62
66
77
85
77
66
59
64
58
41
28
16
11
4
-14
-27
-36
-30
-31
-37
-39
-35
-24
-16
-22
-16
-11
17
12
14
12
14
16
13
-2
-11
-21
-13
-40
-54
-75
-87
-97
-115
-143
-159
-170
-172
-191
-201
-212
-214
-213
-219
-227
-225
-213
-197
-199
-194
-189
-176
-166
-170
-175
-176
-164
-165
-176
-184
-190
-190
-193
-208
-219
-227
-220
-224
-230
-234
-233
-223
-216
-224
-217
-209
-177
-173
-159
-147
-127
-104
-85
-78
-62
-47
-11
-13
-1
4
17
32
37
33
38
47
60
53
52
47
48
50
41
29
26
34
45
38
41
44
56
68
69
71
81
109
122
129
138
147
162
171
169
168
168
180
178
172
165
162
163
157
133
123
111
121
105
96
86
84
85
83
70
70
72
96
84
89
89
97
108
110
106
109
115
126
116
112
105
105
105
93
78
69
70
70
49
36
22
16
9
-10
-24
-32
-21
-23
-30
-31
-28
-18
-8
-6
-3
3
24
27
31
31
36
43
42
24
17
8
18
3
-6
-19
-26
-31
-42
-66
-78
-89
-77
-99
-104
-111
-106
-98
-96
-98
-92
-79
-58
-58
-50
-44
-31
-18
-18
-22
-21
-11
-5
-17
-22
-29
-30
-33
-50
-64
-75
-69
-79
-94
-106
-115
-117
-119
-129
-135
-136
-118
-120
-118
-117
-109
-94
-86
-93
-88
-84
-61
-62
-60
-63
-60
-56
-59
-79
-84
-90
-75
-95
-101
-113
-117
-120
-131
-148
-157
-158
-152
-166
-168
-170
-162
-150
-149
-150
-142
-122
-107
-107
-100
-94
-80
-69
-75
-78
-79
-64
-66
-75
-82
-88
-89
-92
-107
-120
-131
-123
-141
-152
-165
-170
-168
-169
-182
-181
-178
-155
-154
-145
-138
-125
-110
-102
-110
-102
-94
-69
-76
-73
-74
-70
-68
-74
-86
-93
-93
-87
-103
-110
-118
-119
-118
-128
-140
-143
-133
-125
-130
-127
-122
-108
-94
-93
-87
-79
-55
-45
-44
-40
-35
-25
-17
-20
-21
-21
-1
-11
-16
-24
-27
-25
-30
-46
-53
-58
-44
-53
-52
-53
-45
-30
-21
-24
-8
11
50
61
81
98
121
144
157
166
180
200
223
224
234
240
254
265
263
258
259
272
279
272
272
273
283
293
290
293
302
328
344
354
371
390
416
439
448
462
476
510
509
514
513
517
522
520
507
500
492
500
480
467
448
437
430
415
388
378
372
381
368
366
364
370
379
382
382
391
408
430
430
438
442
453
460
453
443
438
443
441
425
414
404
401
392
369
349
332
331
319
301
288
279
277
275
260
255
252
273
263
264
262
265
272
272
262
258
252
263
243
232
216
208
204
191
166
154
145
148
128
116
102
96
90
77
61
55
58
66
53
51
48
54
60
54
46
45
57
60
52
49
46
50
49
34
23
16
23
19
7
-3
-11
-15
-23
-47
-60
-74
-62
-80
-88
-97
-98
-94
-94
-103
-104
-104
-83
-95
-94
-97
-91
-82
-83
-95
-97
-96
-88
-100
-105
-113
-113
-113
-122
-137
-143
-142
-139
-157
-168
-179
-181
-183
-196
-207
-210
-197
-193
-196
-194
-188
-175
-166
-167
-166
-162
-144
-138
-138
-138
-137
-130
-129
-145
-149
-154
-136
-150
-157
-167
-172
-176
-186
-206
-217
-226
-214
-235
-239
-246
-242
-234
-233
-238
-233
-224
-207
-209
-204
-200
-189
-178
-177
-181
-179
-168
-157
-166
-168
-172
-170
-169
-181
-194
-202
-196
-203
-217
-227
-235
-235
-237
-247
-252
-251
-235
-227
-221
-215
-204
-188
-176
-181
-172
-166
-137
-139
-134
-132
-127
-120
-120
-133
-137
-141
-125
-146
-153
-166
-170
-172
-180
-195
-200
-198
-187
-192
-188
-183
-168
-151
-142
-136
-121
-96
-72
-65
-52
-40
-20
-4
-1
2
8
29
34
30
28
26
29
28
17
5
-3
4
-4
-13
-23
-26
-23
-23
-38
-38
-37
-13
-16
-13
-13
-9
-4
-8
-28
-40
-58
-61
-107
-145
-195
-244
-297
-365
-442
-515
-584
-646
-727
-797
-865
-921
-973
-1032
-1093
-1143
-1180
-1216
-1266
-1307
-1345
-1373
-1401
-1441
-1480
-1515
-1534
-1569
-1612
-1652
-1689
-1719
-1750
-1787
-1821
-1850
-1860
-1884
-1898
-1904
-1892
-1863
-1828
-1796
-1736
-1663
-1557
-1459
-1336
-1193
-1019
-815
-590
-350
-71
233
583
918
1291
1681
2097
2528
2958
3386
3814
4236
4648
5019
5377
5707
6019
6306
6560
6791
7011
7225
7421
7588
7751
7903
8054
8197
8315
8422
8517
8611
8672
8707
8725
8723
8706
8665
8594
8506
8402
8298
8157
8006
7840
7668
7489
7293
7071
6847
6613
6386
6129
5870
5605
5343
5082
4814
4533
4270
4011
3778
3516
3273
3031
2805
2585
2364
2144
1936
1740
1554
1352
1162
974
799
628
450
274
111
-37
-183
-340
-485
-626
-755
-882
-1018
-1145
-1262
-1355
-1456
-1557
-1648
-1730
-1800
-1866
-1935
-1995
-2047
-2074
-2123
-2162
-2200
-2227
-2246
-2269
-2303
-2327
-2348
-2353
-2380
-2399
-2421
-2436
-2446
-2463
-2495
-2511
-2527
-2526
-2555
-2572
-2590
-2600
-2608
-2622
-2639
-2647
-2646
-2638
-2649
-2649
-2648
-2639
-2629
-2628
-2629
-2620
-2600
-2584
-2584
-2578
-2573
-2561
-2552
-2559
-2562
-2562
-2545
-2543
-2548
-2551
-2553
-2552
-2552
-2564
-2569
-2572
-2550
-2556
-2552
-2548
-2535
-2516
-2499
-2491
-2474
-2455
-2419
-2407
-2385
-2368
-2343
-2315
-2296
-2292
-2273
-2255
-2222
-2218
-2207
-2199
-2186
-2175
-2174
-2179
-2178
-2170
-2158
-2166
-2163
-2161
-2149
-2135
-2132
-2128
-2115
-2087
-2063
-2050
-2032
-2012
-1986
-1961
-1950
-1934
-1916
-1882
-1860
-1845
-1829
-1811
-1788
-1768
-1762
-1749
-1736
-1701
-1697
-1684
-1674
-1657
-1635
-1619
-1613
-1598
-1581
-1546
-1538
-1518
-1502
-1475
-1445
-1423
-1415
-1393
-1369
-1332
-1320
-1300
-1282
-1259
-1237
-1225
-1219
-1207
-1189
-1170
-1173
-1168
-1167
-1159
-1153
-1160
-1169
-1171
-1160
-1156
-1163
-1163
-1161
-1149
-1137
-1137
-1130
-1117
-1089
-1072
-1061
-1048
-1032
-1011
-994
-991
-980
-969
-935
-934
-926
-923
-916
-907
-906
-917
-923
-929
-918
-937
-944
-954
-955
-951
-954
-967
-964
-956
-934
-931
-917
-903
-881
-859
-845
-837
-821
-798
-773
-770
-759
-751
-736
-724
-726
-731
-733
-722
-725
-739
-750
-761
-767
-776
-797
-813
-826
-824
-830
-841
-849
-852
-847
-844
-854
-851
-848
-820
-824
-820
-819
-814
-807
-806
-816
-819
-822
-807
-826
-832
-846
-854
-860
-876
-903
-920
-933
-935
-955
-966
-977
-978
-977
-985
-995
-995
-983
-967
-969
-961
-954
-939
-925
-923
-923
-920
-903
-900
-906
-910
-914
-912
-914
-930
-945
-960
-962
-976
-997
-1017
-1034
-1044
-1056
-1082
-1093
-1101
-1083
-1093
-1093
-1092
-1083
-1069
-1060
-1060
-1051
-1041
-1011
-1018
-1010
-1009
-1001
-992
-993
-1004
-1008
-1008
-1002
-1015
-1023
-1036
-1042
-1050
-1068
-1091
-1102
-1101
-1097
-1109
-1109
-1108
-1096
-1084
-1083
-1080
-1070
-1044
-1031
-1026
-1016
-1004
-987
-973
-972
-971
-969
-955
-956
-961
-967
-969
-965
-967
-987
-994
-1001
-987
-1001
-1008
-1015
-1015
-1009
-1005
-1010
-1002
-991
-956
-956
-939
-925
-902
-875
-857
-845
-825
-801
-771
-762
-746
-734
-715
-697
-690
-687
-676
-655
-635
-632
-620
-609
-588
-567
-557
-543
-520
-477
-446
-418
-385
-346
-299
-254
-217
-178
-138
-83
-44
-8
26
63
105
140
157
187
215
263
285
311
333
360
389
412
421
442
463
508
516
540
562
594
631
661
687
722
764
811
838
871
900
936
971
994
1011
1035
1067
1096
1105
1121
1134
1154
1171
1174
1179
1188
1216
1229
1237
1249
1265
1287
1308
1322
1338
1358
1396
1415
1438
1460
1488
1521
1546
1555
1573
1590
1622
1629
1638
1642
1651
1660
1661
1645
1642
1636
1650
1626
1616
1600
1592
1585
1570
1552
1542
1538
1542
1526
1521
1515
1520
1527
1524
1520
1525
1539
1550
1544
1543
1541
1545
1545
1530
1517
1505
1509
1497
1478
1460
1444
1433
1419
1394
1371
1351
1349
1323
1303
1282
1269
1263
1253
1231
1222
1214
1225
1216
1213
1207
1207
1211
1206
1186
1180
1173
1184
1160
1148
1132
1122
1112
1092
1067
1049
1036
1029
1000
980
959
947
938
919
899
889
894
897
887
886
887
897
908
905
906
910
929
933
928
924
920
919
914
897
882
869
876
853
838
819
804
795
779
750
731
713
713
693
681
668
665
667
663
645
644
645
665
656
658
656
660
664
658
645
638
636
638
616
604
588
579
569
545
519
499
490
476
449
429
413
406
400
381
370
364
376
377
374
375
380
390
399
395
397
399
423
413
410
400
395
393
383
362
349
336
339
316
301
282
270
261
245
216
206
199
211
200
201
202
210
220
222
221
228
241
259
253
256
257
263
267
257
243
234
235
230
210
196
183
177
169
147
130
116
118
110
95
86
80
82
84
74
74
75
101
94
98
98
104
115
119
113
113
112
127
113
108
97
92
91
81
58
48
40
44
25
12
-3
-9
-14
-26
-41
-46
-41
-30
-38
-34
-31
-18
-6
-6
-8
-5
12
20
16
15
15
20
22
8
-2
-10
-4
-9
-22
-33
-42
-45
-52
-74
-85
-95
-79
-94
-99
-104
-101
-91
-84
-84
-75
-63
-32
-32
-20
-15
0
16
24
20
27
37
56
54
57
57
63
68
63
52
48
52
59
45
40
34
37
42
38
36
43
68
84
94
111
131
157
181
191
203
218
243
257
263
269
277
290
297
286
285
282
303
290
286
280
278
279
275
262
258
256
274
258
259
255
261
271
272
266
269
276
290
284
284
281
284
285
277
263
256
257
260
242
232
220
215
209
190
171
157
160
153
140
131
126
130
132
125
122
124
141
150
154
159
167
180
188
178
180
179
200
191
188
181
180
180
174
155
145
133
142
114
100
82
74
71
60
44
39
40
51
45
48
51
63
76
79
79
86
103
119
114
116
115
120
123
111
98
89
95
86
68
52
37
27
15
-7
-26
-39
-37
-45
-55
-63
-64
-59
-57
-69
-67
-63
-38
-38
-33
-30
-22
-13
-12
-26
-31
-37
-23
-47
-55
-70
-77
-82
-98
-120
-137
-149
-154
-179
-194
-209
-213
-214
-222
-232
-231
-218
-205
-208
-202
-195
-180
-165
-165
-163
-159
-140
-138
-145
-151
-156
-155
-157
-169
-180
-189
-182
-192
-203
-215
-222
-222
-227
-245
-247
-248
-226
-226
-218
-212
-199
-182
-169
-170
-158
-146
-112
-115
-103
-98
-86
-74
-73
-78
-77
-72
-61
-72
-74
-80
-78
-77
-88
-102
-109
-105
-101
-113
-115
-117
-108
-99
-102
-101
-95
-70
-59
-55
-49
-40
-27
-16
-16
-17
-16
0
-6
-11
-19
-22
-19
-24
-43
-52
-61
-53
-68
-78
-91
-96
-97
-102
-119
-119
-117
-91
-98
-89
-83
-66
-48
-39
-34
-24
-9
11
9
16
18
28
36
30
19
15
21
22
7
-1
-10
-12
-15
-32
-44
-50
-37
-37
-40
-38
-31
-16
-2
3
12
23
52
55
63
67
77
90
95
86
85
82
92
77
64
43
23
2
-34
-90
-138
-190
-228
-301
-365
-432
-491
-549
-613
-679
-734
-778
-813
-866
-906
-948
-982
-1017
-1064
-1113
-1156
-1187
-1225
-1279
-1329
-1380
-1425
-1472
-1533
-1589
-1639
-1670
-1714
-1762
-1802
-1834
-1853
-1862
-1869
-1858
-1829
-1764
-1714
-1644
-1564
-1464
-1343
-1210
-1068
-897
-702
-466
-227
44
335
657
1004
1363
1730
2135
2559
3013
3446
3894
4338
4779
5205
5602
5968
6315
6641
6945
7202
7445
7666
7876
8068
8234
8386
8535
8688
8829
8948
9060
9155
9239
9300
9324
9331
9320
9302
9248
9164
9060
8938
8803
8649
8468
8281
8083
7900
7675
7451
7214
6975
6732
6476
6204
5936
5666
5409
5126
4851
4574
4307
4045
3776
3497
3236
2979
2740
2479
2231
1987
1755
1531
1305
1083
875
682
500
303
123
-54
-215
-370
-529
-681
-819
-938
-1057
-1181
-1294
-1400
-1493
-1584
-1683
-1773
-1855
-1920
-1992
-2067
-2135
-2199
-2255
-2311
-2378
-2433
-2484
-2505
-2556
-2594
-2631
-2658
-2679
-2704
-2737
-2760
-2782
-2784
-2813
-2829
-2847
-2856
-2859
-2871
-2895
-2904
-2911
-2906
-2921
-2928
-2936
-2937
-2937
-2944
-2956
-2959
-2954
-2945
-2956
-2957
-2959
-2951
-2942
-2944
-2945
-2940
-2921
-2910
-2911
-2907
-2901
-2889
-2879
-2880
-2877
-2871
-2850
-2838
-2832
-2824
-2813
-2796
-2782
-2782
-2772
-2762
-2725
-2721
-2707
-2696
-2679
-2658
-2642
-2636
-2621
-2605
-2570
-2567
-2549
-2537
-2518
-2496
-2485
-2485
-2475
-2462
-2438
-2435
-2424
-2414
-2395
-2376
-2364
-2356
-2339
-2313
-2284
-2275
-2257
-2240
-2213
-2186
-2171
-2156
-2134
-2098
-2074
-2059
-2040
-2019
-1991
-1966
-1953
-1938
-1921
-1893
-1876
-1867
-1857
-1844
-1824
-1808
-1807
-1793
-1778
-1738
-1727
-1707
-1687
-1660
-1630
-1606
-1591
-1569
-1545
-1501
-1492
-1468
-1451
-1426
-1400
-1385
-1380
-1366
-1349
-1325
-1322
-1313
-1308
-1297
-1288
-1289
-1295
-1293
-1282
-1267
-1271
-1265
-1259
-1243
-1227
-1222
-1215
-1202
-1173
-1158
-1150
-1138
-1123
-1102
-1085
-1079
-1072
-1062
-1040
-1031
-1028
-1027
-1023
-1014
-1011
-1026
-1027
-1030
-1010
-1018
-1017
-1017
-1011
-999
-991
-993
-983
-971
-936
-936
-921
-911
-893
-873
-862
-859
-849
-835
-814
-814
-808
-804
-795
-786
-789
-799
-801
-796
-792
-808
-817
-828
-830
-833
-848
-860
-866
-854
-853
-857
-855
-849
-833
-818
-813
-806
-797
-775
-767
-763
-760
-755
-744
-742
-757
-759
-764
-751
-766
-778
-794
-807
-819
-836
-867
-885
-902
-896
-927
-941
-957
-963
-965
-973
-984
-987
-982
-970
-977
-977
-979
-974
-968
-975
-986
-991
-987
-986
-1003
-1014
-1028
-1036
-1046
-1072
-1097
-1120
-1126
-1148
-1176
-1199
-1218
-1230
-1243
-1262
-1278
-1289
-1282
-1291
-1295
-1298
-1294
-1282
-1275
-1283
-1278
-1273
-1250
-1251
-1249
-1250
-1246
-1240
-1241
-1257
-1261
-1266
-1251
-1274
-1283
-1297
-1304
-1309
-1323
-1339
-1347
-1348
-1340
-1350
-1350
-1351
-1342
-1331
-1328
-1327
-1317
-1296
-1277
-1275
-1265
-1256
-1241
-1230
-1234
-1236
-1236
-1220
-1219
-1226
-1230
-1234
-1233
-1236
-1249
-1261
-1270
-1260
-1271
-1276
-1282
-1278
-1267
-1259
-1263
-1253
-1241
-1210
-1199
-1182
-1168
-1146
-1120
-1100
-1095
-1076
-1057
-1018
-1016
-1001
-990
-972
-953
-943
-938
-927
-910
-887
-885
-872
-860
-837
-811
-793
-774
-744
-699
-654
-623
-582
-540
-488
-437
-399
-358
-314
-252
-205
-166
-126
-87
-44
-4
23
52
82
131
152
179
201
230
264
292
307
333
362
411
439
476
512
557
607
651
681
728
775
839
870
912
949
991
1031
1060
1082
1108
1137
1169
1178
1195
1208
1228
1249
1256
1261
1272
1295
1312
1315
1325
1337
1357
1377
1385
1401
1422
1462
1490
1512
1538
1565
1594
1620
1632
1649
1666
1703
1708
1718
1724
1733
1745
1748
1738
1734
1729
1739
1724
1715
1702
1696
1693
1683
1660
1653
1649
1663
1651
1651
1651
1660
1669
1671
1667
1667
1673
1682
1668
1661
1651
1648
1644
1627
1606
1591
1588
1577
1552
1533
1514
1502
1488
1461
1439
1420
1418
1406
1387
1372
1361
1358
1354
1340
1334
1331
1353
1345
1345
1343
1347
1355
1356
1347
1344
1341
1355
1341
1337
1327
1324
1324
1314
1291
1281
1273
1277
1257
1246
1234
1230
1227
1217
1203
1198
1203
1212
1201
1202
1202
1211
1220
1215
1208
1205
1216
1216
1204
1196
1189
1188
1184
1166
1152
1141
1142
1132
1114
1097
1082
1072
1058
1031
1014
1000
1011
989
979
966
960
959
954
940
935
931
944
927
922
910
907
905
893
868
855
844
843
821
805
785
772
757
733
703
681
667
656
627
608
589
580
571
551
532
520
523
519
506
500
496
500
501
490
481
474
479
473
460
446
435
429
419
392
375
357
361
333
313
290
274
261
245
221
207
196
206
184
178
169
169
174
172
161
162
166
178
170
168
162
162
161
148
130
121
118
118
96
82
65
55
43
18
-7
-27
-31
-45
-66
-81
-91
-91
-92
-103
-108
-108
-93
-87
-86
-83
-77
-65
-58
-69
-69
-72
-53
-67
-74
-84
-88
-90
-98
-118
-131
-145
-139
-171
-187
-209
-220
-227
-239
-257
-262
-260
-249
-255
-251
-248
-236
-225
-223
-226
-221
-207
-193
-200
-199
-201
-197
-195
-207
-219
-226
-217
-221
-234
-243
-251
-253
-259
-274
-286
-293
-284
-284
-284
-282
-272
-255
-240
-241
-227
-214
-179
-173
-161
-152
-138
-123
-116
-122
-118
-116
-94
-109
-110
-117
-115
-113
-120
-135
-142
-144
-140
-154
-158
-163
-158
-150
-149
-149
-137
-115
-90
-82
-66
-51
-29
-10
-3
5
16
44
55
59
64
70
81
87
82
78
76
88
84
78
72
70
76
76
62
62
63
86
86
93
101
116
135
150
151
164
176
210
206
215
219
229
239
239
231
228
229
234
218
211
199
195
191
177
160
152
157
161
150
149
150
161
172
172
177
188
218
233
240
249
258
272
283
282
280
279
293
285
277
266
259
257
248
224
213
201
208
193
183
173
170
173
171
158
161
167
196
191
203
213
231
250
259
261
268
279
293
284
283
279
283
286
278
266
261
267
269
255
248
242
243
243
231
226
225
244
248
247
251
258
271
283
288
295
304
331
332
336
337
342
350
351
336
331
325
335
321
310
295
285
276
260
228
211
195
200
173
162
149
146
144
137
128
127
134
147
141
145
147
156
164
160
151
147
153
154
137
126
114
109
100
76
55
37
35
18
-5
-24
-42
-54
-66
-87
-103
-116
-106
-121
-128
-135
-133
-124
-121
-129
-127
-124
-105
-110
-109
-114
-113
-109
-115
-136
-142
-148
-137
-156
-166
-180
-189
-198
-216
-237
-251
-256
-254
-270
-274
-276
-268
-257
-256
-254
-243
-218
-197
-191
-179
-167
-148
-132
-134
-133
-132
-116
-115
-123
-128
-133
-135
-139
-156
-169
-181
-171
-191
-202
-214
-217
-213
-214
-223
-221
-216
-193
-193
-182
-174
-158
-137
-125
-128
-117
-106
-82
-87
-86
-89
-88
-88
-97
-112
-120
-122
-120
-140
-151
-165
-170
-176
-192
-207
-212
-202
-196
-201
-198
-191
-175
-160
-158
-150
-140
-116
-103
-99
-92
-85
-76
-71
-81
-85
-90
-72
-87
-93
-102
-104
-103
-108
-123
-131
-138
-128
-144
-148
-155
-152
-141
-138
-144
-135
-123
-97
-93
-82
-73
-58
-42
-35
-33
-23
-7
12
8
13
15
24
31
24
18
17
30
34
27
25
24
33
39
33
33
38
59
72
80
92
108
130
149
152
164
176
212
213
222
226
234
244
247
239
237
234
248
229
222
208
202
200
187
164
155
149
155
141
137
133
139
149
152
153
165
186
209
210
219
225
238
249
246
241
241
253
252
241
232
224
221
214
194
177
163
163
153
137
126
119
118
116
100
97
96
121
116
122
126
136
148
153
147
148
148
167
151
147
137
135
134
123
101
88
78
75
53
37
21
13
7
-5
-20
-24
-17
-6
-13
-8
-2
13
29
34
39
50
74
86
87
91
94
103
108
102
97
94
105
103
97
91
89
91
89
70
65
59
77
67
65
62
67
76
81
76
81
89
119
114
123
127
138
150
152
144
143
146
154
142
137
129
128
128
116
98
87
85
83
62
49
35
31
27
11
-3
-9
1
-1
-10
-14
-15
-8
-3
-9
-12
-11
3
2
-2
-8
-11
-8
-12
-32
-40
-48
-36
-50
-60
-73
-82
-89
-102
-126
-138
-148
-135
-157
-161
-168
-166
-160
-161
-167
-165
-156
-141
-144
-138
-135
-124
-114
-116
-124
-125
-117
-111
-124
-131
-139
-142
-149
-170
-191
-209
-211
-228
-252
-271
-287
-296
-306
-324
-340
-354
-354
-374
-397
-426
-455
-483
-524
-586
-640
-701
-747
-821
-894
-970
-1041
-1108
-1179
-1260
-1326
-1389
-1429
-1505
-1565
-1628
-1682
-1734
-1792
-1850
-1898
-1937
-1966
-2014
-2050
-2086
-2113
-2136
-2166
-2198
-2217
-2220
-2220
-2231
-2226
-2213
-2182
-2141
-2100
-2042
-1969
-1867
-1769
-1668
-1550
-1417
-1263
-1092
-909
-701
-465
-187
97
410
745
1109
1504
1917
2336
2782
3239
3719
4173
4621
5049
5461
5851
6205
6515
6813
7086
7356
7571
7778
7963
8139
8302
8445
8573
8700
8823
8938
9015
9081
9126
9159
9174
9160
9123
9075
9017
8937
8825
8705
8569
8429
8272
8089
7899
7701
7509
7287
7046
6795
6536
6274
6003
5716
5428
5138
4865
4565
4272
3978
3694
3418
3141
2856
2588
2326
2088
1837
1600
1370
1157
957
760
560
384
216
75
-91
-238
-382
-512
-638
-765
-891
-1006
-1109
-1202
-1312
-1410
-1506
-1591
-1674
-1764
-1854
-1934
-1998
-2062
-2135
-2197
-2253
-2296
-2336
-2384
-2421
-2449
-2454
-2466
-2480
-2487
-2489
-2483
-2478
-2482
-2479
-2476
-2450
-2453
-2448
-2448
-2442
-2432
-2429
-2440
-2444
-2448
-2438
-2452
-2460
-2473
-2478
-2479
-2486
-2507
-2510
-2510
-2491
-2498
-2492
-2487
-2471
-2452
-2439
-2429
-2410
-2385
-2354
-2346
-2329
-2316
-2297
-2279
-2276
-2275
-2268
-2249
-2239
-2244
-2247
-2251
-2250
-2253
-2272
-2286
-2296
-2288
-2291
-2298
-2300
-2298
-2287
-2277
-2275
-2264
-2249
-2207
-2196
-2174
-2155
-2127
-2096
-2070
-2057
-2037
-2017
-1983
-1976
-1961
-1953
-1939
-1923
-1919
-1931
-1931
-1931
-1918
-1931
-1936
-1942
-1941
-1938
-1941
-1947
-1942
-1927
-1905
-1902
-1886
-1870
-1845
-1819
-1805
-1792
-1772
-1741
-1718
-1709
-1695
-1682
-1663
-1649
-1649
-1646
-1641
-1624
-1618
-1622
-1624
-1625
-1623
-1623
-1637
-1640
-1641
-1616
-1621
-1614
-1608
-1593
-1572
-1554
-1545
-1528
-1509
-1473
-1466
-1447
-1434
-1414
-1392
-1381
-1383
-1374
-1364
-1345
-1348
-1346
-1346
-1342
-1339
-1346
-1360
-1366
-1365
-1359
-1373
-1374
-1375
-1365
-1354
-1353
-1350
-1339
-1311
-1291
-1281
-1267
-1251
-1228
-1210
-1204
-1197
-1188
-1168
-1159
-1161
-1162
-1163
-1160
-1161
-1179
-1187
-1198
-1184
-1204
-1216
-1229
-1236
-1238
-1243
-1256
-1260
-1261
-1240
-1249
-1243
-1241
-1228
-1211
-1203
-1205
-1197
-1185
-1165
-1167
-1164
-1164
-1159
-1156
-1164
-1178
-1184
-1183
-1179
-1196
-1205
-1215
-1218
-1222
-1240
-1257
-1268
-1262
-1264
-1274
-1278
-1277
-1266
-1256
-1256
-1252
-1244
-1223
-1214
-1212
-1209
-1204
-1194
-1190
-1204
-1207
-1213
-1198
-1216
-1227
-1242
-1253
-1261
-1275
-1299
-1316
-1332
-1328
-1360
-1377
-1398
-1409
-1416
-1431
-1452
-1461
-1464
-1458
-1469
-1471
-1474
-1471
-1467
-1474
-1485
-1488
-1482
-1475
-1488
-1494
-1501
-1501
-1504
-1520
-1536
-1549
-1546
-1556
-1574
-1588
-1600
-1605
-1613
-1631
-1644
-1652
-1645
-1647
-1650
-1650
-1643
-1628
-1615
-1618
-1607
-1597
-1565
-1563
-1554
-1547
-1536
-1522
-1513
-1516
-1508
-1500
-1470
-1476
-1466
-1461
-1446
-1430
-1422
-1421
-1413
-1399
-1378
-1376
-1365
-1355
-1336
-1315
-1301
-1290
-1268
-1234
-1198
-1179
-1152
-1126
-1092
-1061
-1043
-1025
-1004
-968
-947
-936
-923
-910
-891
-877
-873
-869
-864
-844
-839
-834
-828
-816
-795
-777
-772
-752
-730
-684
-662
-632
-602
-563
-518
-478
-449
-410
-371
-312
-293
-261
-235
-202
-168
-143
-125
-100
-72
-37
-24
-3
13
37
61
73
83
102
134
167
184
210
237
273
309
332
360
395
447
485
516
551
588
629
666
692
719
747
791
816
841
864
891
923
946
952
970
987
1022
1033
1051
1067
1092
1120
1143
1154
1178
1203
1251
1263
1290
1313
1343
1373
1394
1409
1429
1452
1478
1481
1492
1498
1510
1523
1523
1519
1522
1535
1544
1536
1534
1530
1533
1533
1521
1513
1510
1526
1529
1527
1530
1535
1545
1555
1555
1556
1560
1581
1578
1580
1577
1579
1585
1582
1563
1553
1542
1547
1528
1513
1495
1481
1469
1449
1413
1392
1370
1370
1338
1322
1304
1296
1291
1281
1267
1262
1265
1275
1264
1262
1257
1261
1265
1257
1244
1238
1242
1240
1221
1207
1191
1181
1168
1140
1116
1095
1090
1071
1046
1024
1006
995
985
967
954
946
960
948
944
937
939
945
945
931
927
922
934
922
916
904
899
894
881
852
837
822
825
797
779
758
744
730
708
682
663
653
649
627
618
609
612
617
612
608
612
628
639
636
638
640
650
655
644
637
630
638
630
614
600
586
577
565
541
523
505
510
486
472
456
450
450
447
436
436
440
463
463
472
478
490
504
509
499
503
506
524
512
509
500
497
494
481
464
453
450
452
434
428
421
423
427
421
415
419
438
453
457
468
482
504
525
532
541
553
579
591
594
598
602
610
614
604
601
596
615
600
594
584
580
580
574
557
547
539
550
535
531
523
525
532
532
520
524
531
553
551
557
561
571
581
582
578
581
591
604
595
595
593
596
596
583
566
555
555
547
527
513
501
500
497
481
471
466
478
481
479
481
488
500
509
503
507
511
539
533
535
533
537
544
545
535
532
527
538
518
508
491
481
473
456
428
415
406
409
392
384
377
379
383
381
376
381
395
412
409
414
418
428
436
430
422
417
425
422
405
391
377
368
354
326
301
279
269
250
226
207
192
185
176
153
145
138
157
147
147
145
150
158
160
152
150
148
165
147
141
129
126
125
113
92
80
71
69
47
31
12
2
-6
-22
-41
-49
-46
-38
-48
-48
-49
-39
-30
-33
-36
-33
-16
-9
-13
-14
-16
-13
-15
-30
-43
-55
-54
-64
-80
-96
-110
-119
-133
-163
-180
-196
-186
-205
-214
-222
-221
-216
-214
-221
-217
-211
-184
-193
-186
-185
-174
-162
-160
-167
-167
-165
-157
-171
-178
-189
-194
-200
-216
-237
-251
-256
-260
-284
-298
-312
-317
-320
-334
-345
-347
-332
-328
-330
-327
-321
-308
-299
-301
-301
-300
-286
-286
-291
-298
-302
-301
-308
-332
-343
-355
-345
-363
-375
-389
-398
-404
-415
-436
-444
-450
-432
-448
-446
-447
-437
-423
-415
-413
-403
-388
-368
-368
-360
-355
-342
-329
-329
-333
-330
-317
-307
-315
-316
-318
-311
-307
-314
-318
-316
-296
-289
-287
-279
-268
-247
-227
-215
-200
-180
-144
-123
-102
-83
-60
-33
-12
-9
5
16
46
48
53
53
57
63
61
46
42
37
55
34
30
22
22
25
20
10
8
14
29
25
33
39
56
74
81
84
95
114
132
133
139
144
156
164
156
150
145
157
151
138
127
117
113
107
92
80
71
81
73
68
64
69
82
91
88
98
111
143
150
163
171
184
198
204
194
198
200
222
208
206
199
198
195
183
164
152
145
144
124
114
104
104
106
99
92
94
110
125
127
138
150
170
187
190
196
204
227
233
232
232
233
237
239
229
221
213
224
209
198
184
177
176
171
154
151
149
166
163
167
170
182
199
210
209
223
237
269
268
278
282
292
301
300
293
292
296
306
293
289
282
282
281
269
255
248
253
257
247
246
246
255
264
258
256
257
276
281
279
279
282
288
291
282
276
270
283
266
253
237
227
221
210
185
168
151
149
122
103
80
66
57
43
17
9
5
19
6
6
4
10
18
17
11
11
17
29
17
12
4
3
0
-17
-36
-49
-51
-59
-82
-100
-118
-128
-142
-169
-191
-209
-207
-216
-230
-237
-240
-235
-232
-239
-239
-238
-214
-222
-222
-226
-224
-220
-224
-240
-250
-261
-257
-278
-291
-309
-319
-325
-340
-368
-381
-392
-388
-410
-421
-433
-436
-438
-445
-455
-455
-447
-432
-438
-434
-433
-424
-415
-419
-423
-421
-405
-397
-403
-404
-406
-400
-398
-409
-417
-421
-410
-410
-418
-423
-426
-425
-426
-441
-445
-448
-425
-433
-428
-424
-411
-393
-379
-375
-364
-353
-325
-328
-323
-327
-328
-331
-349
-388
-422
-462
-498
-564
-628
-699
-767
-836
-915
-999
-1075
-1140
-1197
-1270
-1330
-1387
-1432
-1474
-1524
-1571
-1610
-1632
-1660
-1698
-1731
-1763
-1787
-1815
-1854
-1889
-1921
-1936
-1958
-1985
-2007
-2024
-2030
-2032
-2040
-2026
-1999
-1933
-1883
-1810
-1727
-1625
-1506
-1378
-1243
-1081
-895
-666
-442
-179
108
433
785
1151
1527
1936
2368
2829
3282
3752
4223
4698
5164
5603
6013
6403
6767
7101
7382
7643
7875
8092
8285
8446
8590
8727
8868
8991
9100
9211
9317
9419
9504
9560
9601
9626
9645
9634
9592
9528
9441
9337
9208
9046
8880
8699
8531
8321
8109
7882
7647
7401
7136
6851
6564
6270
5990
5672
5366
5054
4750
4452
4149
3841
3549
3268
3002
2725
2462
2205
1962
1727
1491
1258
1041
840
649
445
257
75
-92
-254
-423
-585
-738
-870
-1009
-1152
-1285
-1411
-1525
-1635
-1749
-1855
-1951
-2029
-2111
-2191
-2264
-2328
-2378
-2427
-2486
-2528
-2566
-2577
-2614
-2641
-2668
-2687
-2701
-2717
-2743
-2758
-2770
-2759
-2784
-2792
-2807
-2812
-2815
-2828
-2849
-2862
-2869
-2869
-2887
-2897
-2908
-2911
-2913
-2923
-2936
-2939
-2931
-2920
-2926
-2922
-2916
-2901
-2886
-2882
-2877
-2866
-2837
-2819
-2808
-2791
-2772
-2746
-2722
-2710
-2698
-2685
-2659
-2650
-2643
-2638
-2628
-2611
-2600
-2603
-2592
-2579
-2546
-2538
-2524
-2512
-2493
-2470
-2452
-2444
-2425
-2403
-2359
-2353
-2331
-2315
-2291
-2266
-2250
-2240
-2225
-2205
-2181
-2177
-2166
-2161
-2150
-2140
-2143
-2149
-2147
-2135
-2123
-2128
-2124
-2121
-2108
-2096
-2096
-2091
-2080
-2052
-2037
-2027
-2012
-1994
-1969
-1947
-1935
-1923
-1909
-1881
-1871
-1861
-1854
-1843
-1827
-1818
-1827
-1826
-1826
-1808
-1814
-1815
-1818
-1813
-1804
-1798
-1805
-1797
-1788
-1754
-1755
-1741
-1730
-1710
-1689
-1675
-1666
-1651
-1631
-1606
-1603
-1592
-1586
-1571
-1557
-1554
-1555
-1549
-1534
-1521
-1525
-1523
-1522
-1513
-1505
-1510
-1511
-1505
-1480
-1468
-1460
-1447
-1431
-1407
-1383
-1368
-1351
-1331
-1294
-1277
-1258
-1242
-1221
-1195
-1178
-1176
-1166
-1157
-1133
-1133
-1131
-1133
-1130
-1126
-1130
-1149
-1154
-1160
-1144
-1163
-1167
-1172
-1168
-1161
-1160
-1161
-1152
-1136
-1113
-1111
-1100
-1092
-1074
-1055
-1047
-1044
-1033
-1013
-998
-1000
-997
-996
-989
-988
-1002
-1014
-1024
-1019
-1029
-1047
-1063
-1076
-1084
-1093
-1110
-1123
-1133
-1120
-1132
-1134
-1137
-1132
-1121
-1116
-1123
-1120
-1116
-1095
-1098
-1095
-1095
-1090
-1082
-1082
-1100
-1104
-1109
-1097
-1120
-1131
-1147
-1157
-1166
-1183
-1205
-1219
-1227
-1228
-1249
-1258
-1267
-1266
-1262
-1266
-1271
-1267
-1251
-1238
-1240
-1234
-1228
-1215
-1205
-1211
-1213
-1213
-1197
-1195
-1202
-1209
-1216
-1221
-1229
-1249
-1266
-1282
-1276
-1299
-1312
-1328
-1335
-1335
-1340
-1353
-1355
-1355
-1334
-1336
-1328
-1324
-1312
-1295
-1287
-1294
-1286
-1278
-1254
-1260
-1257
-1255
-1247
-1239
-1241
-1249
-1252
-1250
-1245
-1261
-1269
-1279
-1279
-1277
-1285
-1293
-1292
-1276
-1264
-1263
-1254
-1242
-1219
-1198
-1191
-1179
-1165
-1136
-1120
-1112
-1103
-1095
-1083
-1075
-1080
-1081
-1082
-1061
-1073
-1078
-1086
-1089
-1088
-1092
-1107
-1113
-1116
-1099
-1105
-1099
-1095
-1081
-1061
-1047
-1045
-1025
-1001
-963
-948
-924
-902
-873
-844
-824
-812
-793
-768
-740
-735
-720
-707
-686
-665
-657
-650
-636
-610
-590
-582
-566
-546
-516
-485
-465
-437
-403
-352
-310
-272
-230
-184
-132
-82
-45
1
46
115
149
191
227
268
311
347
373
404
435
481
496
521
539
564
593
611
619
642
669
711
733
763
794
832
872
904
932
966
1008
1053
1076
1107
1135
1169
1198
1213
1224
1239
1265
1280
1283
1290
1298
1311
1320
1314
1313
1314
1329
1334
1334
1338
1346
1362
1377
1378
1392
1406
1445
1452
1467
1478
1494
1512
1523
1523
1528
1532
1553
1538
1535
1523
1519
1516
1503
1479
1465
1454
1451
1429
1414
1399
1392
1387
1376
1362
1359
1368
1383
1380
1389
1400
1420
1440
1446
1451
1461
1484
1496
1497
1501
1505
1515
1520
1512
1506
1501
1508
1503
1492
1480
1472
1468
1460
1436
1424
1412
1424
1406
1399
1391
1389
1393
1392
1381
1380
1380
1399
1381
1378
1367
1365
1364
1353
1332
1319
1308
1303
1277
1257
1234
1218
1201
1175
1144
1121
1108
1096
1065
1045
1025
1013
1002
981
962
950
955
950
937
930
924
924
920
905
891
880
881
871
856
841
830
825
814
786
770
753
757
733
716
697
685
677
664
641
629
619
631
608
602
593
594
600
598
590
591
595
606
596
593
587
588
589
580
567
561
564
565
548
537
525
519
512
491
472
459
462
454
440
430
424
424
423
414
408
407
424
426
428
430
437
450
457
447
450
451
471
466
466
463
465
470
467
450
444
436
449
424
414
400
395
393
383
369
363
364
373
363
364
365
376
389
392
392
400
417
431
426
427
426
430
431
416
403
393
399
387
367
349
332
319
304
278
254
234
231
212
196
180
172
171
167
151
149
149
168
165
168
169
176
184
184
170
168
164
181
162
156
145
142
138
124
103
89
79
74
49
33
17
11
7
-6
-20
-25
-17
-10
-17
-14
-10
3
14
10
11
13
33
36
31
28
26
28
26
14
3
-7
0
-17
-31
-49
-60
-66
-76
-99
-109
-116
-104
-111
-109
-109
-100
-87
-78
-83
-74
-64
-34
-38
-29
-25
-16
-7
-9
-18
-22
-21
-15
-31
-38
-48
-51
-54
-70
-89
-101
-100
-101
-115
-119
-121
-111
-100
-100
-94
-83
-55
-40
-33
-22
-10
6
19
21
23
26
46
37
32
22
17
15
6
-15
-28
-40
-36
-53
-64
-77
-79
-75
-76
-87
-79
-66
-31
-24
-3
17
46
76
98
114
136
165
196
204
220
231
248
261
259
253
251
261
264
251
245
238
238
236
219
210
204
216
217
214
216
221
233
245
246
252
259
287
282
286
284
288
295
293
278
270
260
265
244
231
213
203
196
181
151
138
127
133
112
102
91
88
88
81
72
74
83
99
94
99
101
111
118
114
106
103
113
115
104
98
92
93
91
73
59
48
52
45
30
20
12
9
6
-10
-17
-23
-3
-13
-13
-15
-9
2
9
6
11
17
38
33
36
32
36
43
40
23
21
20
30
17
9
-1
-5
-9
-22
-40
-51
-53
-50
-68
-75
-83
-81
-78
-86
-93
-91
-74
-64
-66
-62
-58
-46
-39
-46
-50
-52
-39
-38
-44
-48
-50
-49
-51
-69
-78
-89
-75
-94
-103
-113
-115
-112
-113
-121
-121
-118
-94
-100
-91
-84
-67
-47
-34
-34
-21
-6
17
18
23
24
30
35
31
21
18
21
27
10
0
-13
-19
-27
-46
-63
-73
-67
-69
-80
-84
-85
-77
-70
-73
-72
-68
-50
-42
-41
-39
-34
-26
-23
-37
-41
-46
-27
-40
-46
-55
-59
-61
-70
-90
-103
-116
-109
-134
-143
-157
-158
-154
-157
-169
-168
-163
-147
-149
-142
-138
-126
-114
-110
-113
-108
-96
-83
-91
-92
-96
-93
-91
-103
-116
-125
-120
-128
-145
-158
-170
-174
-179
-193
-204
-208
-196
-193
-193
-191
-184
-171
-161
-167
-161
-154
-124
-125
-119
-117
-111
-105
-106
-120
-125
-132
-119
-142
-151
-165
-171
-176
-189
-211
-223
-228
-224
-237
-239
-240
-230
-217
-211
-208
-193
-167
-140
-131
-114
-97
-73
-50
-41
-32
-20
5
13
13
14
16
22
25
16
8
3
11
5
-3
-9
-9
-1
6
-1
9
22
59
71
91
111
135
163
184
191
209
226
263
261
272
276
285
295
294
285
281
280
286
271
264
254
250
247
234
219
215
222
233
229
236
246
265
285
292
302
315
344
356
359
363
368
376
382
376
371
367
377
369
359
348
341
339
332
308
297
287
297
283
277
271
271
276
277
267
272
278
308
300
307
310
319
330
330
324
322
325
333
319
313
304
302
299
285
266
253
251
247
227
214
203
200
197
182
171
166
179
179
176
178
183
196
207
208
210
212
230
226
222
214
212
213
207
185
174
162
167
148
134
118
108
101
89
63
54
46
61
42
39
33
37
42
41
38
43
54
70
66
69
68
75
80
73
60
55
60
62
47
38
28
24
17
-5
-23
-38
-35
-46
-61
-70
-76
-74
-73
-80
-83
-81
-59
-61
-56
-52
-40
-23
-13
-18
-13
-9
10
5
4
-2
-2
1
-3
-21
-26
-32
-19
-41
-52
-68
-77
-85
-100
-119
-130
-133
-128
-143
-148
-153
-148
-141
-142
-146
-142
-126
-114
-118
-116
-115
-108
-105
-119
-130
-139
-132
-140
-156
-169
-182
-190
-201
-223
-240
-256
-249
-268
-276
-284
-283
-274
-268
-273
-266
