-4533
-4333
-4124
-3889
-3641
-3388
-3132
-2876
-2627
-2381
-2142
-1913
-1702
-1476
-1261
-1049
-846
-649
-464
-288
-126
19
146
278
393
504
605
706
800
897
984
1057
1120
1190
1247
1298
1343
1385
1422
1458
1483
1494
1500
1511
1510
1506
1498
1486
1473
1460
1438
1404
1375
1349
1315
1279
1243
1207
1174
1142
1104
1057
1018
984
948
913
880
849
823
797
765
721
699
670
645
619
598
578
566
554
539
520
522
517
518
518
522
525
534
538
531
523
526
523
522
521
523
524
529
529
518
508
508
501
495
490
486
484
486
481
466
461
462
459
457
458
459
465
471
472
464
462
463
461
457
457
455
461
464
459
443
447
443
440
436
435
433
437
439
436
426
435
435
439
440
444
445
452
453
446
436
436
430
426
420
416
413
413
407
391
377
374
366
359
354
350
349
351
346
330
323
321
315
311
309
306
307
309
303
289
283
278
272
265
261
257
260
260
252
234
235
230
225
220
218
214
217
218
212
199
206
203
202
200
202
204
210
213
209
206
212
213
215
216
220
222
228
228
218
210
212
207
205
203
201
202
205
202
187
183
181
177
173
172
171
172
174
171
159
155
152
149
146
146
146
153
157
152
138
140
136
133
129
128
125
129
129
122
107
112
106
102
96
94
91
92
90
81
72
74
70
69
66
65
64
67
64
52
45
46
42
39
37
35
37
41
39
25
24
25
24
24
25
26
28
31
28
17
18
17
18
16
19
20
29
34
31
19
23
22
21
19
21
21
28
30
22
6
10
3
-3
-10
-15
-20
-20
-23
-34
-46
-47
-54
-61
-67
-71
-74
-72
-75
-87
-93
-91
-94
-98
-102
-106
-106
-106
-112
-129
-134
-137
-142
-148
-150
-154
-157
-159
-169
-188
-195
-207
-220
-236
-251
-270
-284
-303
-331
-367
-389
-417
-442
-468
-490
-513
-528
-548
-575
-609
-623
-647
-668
-689
-707
-725
-739
-755
-778
-801
-813
-831
-847
-862
-875
-884
-889
-898
-916
-930
-935
-946
-957
-967
-977
-984
-989
-1001
-1024
-1035
-1046
-1060
-1073
-1085
-1097
-1106
-1114
-1127
-1150
-1158
-1170
-1181
-1193
-1202
-1213
-1218
-1227
-1244
-1266
-1275
-1288
-1300
-1313
-1321
-1331
-1332
-1339
-1353
-1373
-1373
-1382
-1386
-1390
-1390
-1390
-1385
-1384
-1390
-1396
-1390
-1391
-1391
-1390
-1387
-1383
-1375
-1373
-1383
-1386
-1383
-1385
-1386
-1384
-1380
-1371
-1360
-1355
-1359
-1352
-1342
-1336
-1328
-1319
-1309
-1296
-1281
-1271
-1272
-1255
-1244
-1230
-1219
-1203
-1190
-1172
-1155
-1144
-1139
-1120
-1105
-1088
-1074
-1055
-1038
-1012
-993
-983
-977
-953
-937
-919
-900
-879
-858
-833
-813
-800
-785
-758
-738
-714
-689
-661
-631
-596
-568
-551
-527
-496
-471
-445
-417
-389
-357
-324
-298
-282
-256
-228
-203
-177
-149
-120
-87
-53
-26
-9
26
54
83
111
143
173
208
241
268
288
323
350
380
407
438
466
502
531
551
567
596
619
643
667
693
719
749
773
790
808
837
859
883
908
934
961
992
1016
1029
1049
1074
1095
1115
1137
1158
1181
1203
1218
1223
1235
1250
1261
1273
1287
1301
1320
1338
1350
1348
1367
1376
1387
1397
1410
1421
1436
1449
1455
1452
1465
1470
1477
1482
1490
1496
1509
1516
1515
1511
1520
1522
1525
1527
1530
1533
1540
1541
1533
1526
1531
1531
1531
1532
1534
1537
1543
1543
1533
1532
1536
1536
1536
1539
1542
1549
1557
1559
1553
1555
1560
1565
1571
1580
1591
1608
1623
1631
1627
1642
1649
1656
1663
1672
1679
1691
1701
1703
1697
1707
1707
1709
1707
1709
1708
1712
1710
1699
1684
1679
1667
1654
1639
1624
1609
1597
1580
1554
1530
1516
1496
1476
1458
1441
1425
1411
1392
1362
1341
1326
1307
1288
1271
1255
1243
1231
1214
1188
1172
1159
1145
1131
1121
1109
1104
1096
1080
1053
1045
1030
1017
1003
991
977
968
956
937
909
900
881
866
848
836
822
815
804
785
766
758
745
732
719
708
697
692
680
659
641
633
618
603
588
574
563
553
538
511
495
483
467
451
438
423
413
403
389
367
355
345
334
323
315
306
303
297
282
257
251
240
231
221
214
208
207
203
191
171
171
161
154
145
141
135
133
126
111
94
88
75
63
51
41
31
25
14
-7
-24
-31
-44
-54
-63
-69
-72
-72
-77
-92
-95
-96
-100
-104
-105
-107
-106
-105
-109
-121
-124
-128
-131
-138
-140
-145
-142
-143
-150
-166
-166
-170
-173
-175
-173
-172
-166
-162
-167
-178
-168
-169
-165
-162
-156
-150
-139
-132
-133
-135
-126
-125
-123
-121
-117
-113
-106
-104
-113
-119
-117
-121
-124
-126
-126
-122
-116
-115
-126
-124
-120
-117
-113
-106
-100
-91
-80
-74
-77
-69
-63
-58
-55
-49
-46
-35
-28
-28
-35
-28
-24
-19
-15
-8
-3
8
15
13
5
17
19
23
26
32
37
45
49
46
43
51
53
57
62
68
75
86
89
82
79
84
84
86
89
94
103
113
117
110
113
118
120
124
130
137
149
162
171
170
184
193
202
209
219
227
241
252
256
253
263
269
275
280
287
292
304
312
312
304
317
319
324
329
337
345
357
364
364
365
377
384
393
403
416
429
446
455
452
454
461
462
463
464
463
464
464
455
433
420
407
391
375
361
347
337
328
314
289
281
268
257
245
238
229
227
222
211
192
188
178
168
157
149
139
138
132
118
98
97
88
81
75
70
66
65
62
51
41
43
39
36
33
32
31
33
29
14
7
7
3
-1
-3
-4
-1
4
2
-10
-11
-9
-10
-10
-8
-6
-1
4
2
-12
-9
-13
-17
-23
-26
-31
-30
-33
-43
-59
-62
-71
-77
-87
-92
-98
-95
-98
-108
-124
-123
-130
-135
-140
-143
-146
-145
-150
-162
-174
-175
-183
-191
-200
-207
-214
-217
-226
-244
-255
-259
-267
-274
-279
-283
-283
-282
-288
-303
-307
-308
-312
-314
-315
-317
-315
-316
-324
-345
-349
-362
-373
-388
-399
-413
-424
-439
-460
-488
-501
-523
-543
-569
-592
-620
-643
-675
-722
-776
-823
-881
-942
-1006
-1069
-1131
-1188
-1250
-1320
-1389
-1447
-1512
-1578
-1648
-1722
-1799
-1880
-1973
-2082
-2191
-2303
-2427
-2558
-2696
-2842
-2993
-3149
-3316
-3497
-3669
-3837
-4003
-4165
-4320
-4471
-4612
-4750
-4887
-5030
-5144
-5256
-5354
-5444
-5519
-5584
-5634
-5675
-5715
-5756
-5772
-5788
-5787
-5773
-5732
-5669
-5572
-5452
-5314
-5154
-4961
-4756
-4534
-4302
-4058
-3810
-3556
-3312
-3086
-2866
-2641
-2430
-2224
-2023
-1825
-1632
-1445
-1274
-1124
-976
-832
-700
-575
-452
-333
-213
-95
15
116
224
332
435
535
634
729
825
915
992
1054
1133
1202
1267
1325
1380
1428
1476
1515
1542
1557
1586
1600
1613
1620
1627
1628
1632
1626
1610
1590
1580
1564
1548
1532
1517
1503
1493
1478
1453
1431
1420
1403
1388
1376
1367
1362
1361
1355
1340
1334
1333
1330
1328
1329
1331
1336
1344
1347
1341
1344
1348
1350
1350
1353
1353
1359
1361
1356
1340
1343
1340
1338
1336
1337
1338
1344
1349
1347
1338
1348
1349
1353
1355
1361
1365
1373
1376
1369
1361
1362
1357
1353
1347
1343
1338
1337
1330
1311
1293
1285
1269
1254
1239
1225
1214
1205
1189
1161
1142
1125
1105
1084
1065
1045
1028
1012
990
960
938
916
893
869
848
826
813
797
774
742
728
709
691
673
658
642
633
622
605
581
579
566
556
546
539
532
528
519
503
487
482
472
462
453
445
438
434
425
407
392
386
375
366
358
352
350
349
341
322
313
308
299
292
288
284
283
283
277
262
257
252
246
238
234
228
230
229
220
204
203
199
195
190
189
186
190
189
181
163
167
159
152
143
137
129
126
119
106
92
90
81
74
66
60
54
52
44
26
12
7
-3
-13
-22
-32
-39
-45
-58
-81
-93
-103
-115
-126
-136
-145
-154
-161
-174
-197
-207
-221
-233
-247
-256
-266
-267
-271
-282
-301
-305
-314
-321
-329
-333
-339
-337
-340
-351
-371
-371
-383
-392
-403
-412
-421
-426
-435
-452
-469
-475
-489
-500
-512
-523
-532
-537
-548
-569
-585
-592
-603
-615
-624
-634
-640
-644
-654
-675
-684
-689
-697
-705
-710
-715
-719
-723
-733
-754
-760
-772
-782
-795
-802
-813
-816
-822
-835
-854
-858
-867
-873
-879
-881
-881
-873
-868
-871
-880
-870
-869
-865
-861
-853
-845
-833
-825
-825
-823
-811
-806
-800
-795
-788
-780
-768
-761
-766
-765
-758
-757
-756
-754
-752
-747
-742
-744
-755
-757
-756
-758
-761
-763
-765
-765
-764
-769
-785
-784
-788
-790
-794
-793
-794
-789
-789
-795
-809
-808
-813
-815
-819
-818
-819
-811
-809
-815
-828
-823
-827
-829
-830
-829
-828
-824
-824
-831
-838
-834
-838
-841
-843
-843
-840
-832
-830
-836
-836
-829
-827
-825
-822
-820
-814
-808
-808
-818
-817
-813
-812
-811
-809
-807
-802
-796
-794
-804
-794
-789
-782
-777
-768
-760
-747
-737
-732
-734
-722
-715
-705
-698
-687
-678
-662
-653
-652
-657
-646
-642
-634
-627
-616
-605
-589
-577
-575
-571
-556
-547
-535
-522
-507
-489
-467
-452
-448
-437
-421
-411
-400
-388
-377
-362
-348
-341
-344
-338
-331
-326
-321
-316
-311
-300
-290
-285
-291
-277
-270
-261
-253
-241
-230
-214
-199
-190
-186
-165
-151
-133
-118
-98
-80
-53
-32
-17
-5
22
43
68
93
121
149
181
208
227
247
280
307
335
364
394
427
462
492
511
538
570
598
627
659
691
726
761
790
809
836
864
889
914
940
966
996
1025
1047
1057
1087
1109
1132
1154
1179
1202
1230
1256
1274
1284
1310
1327
1345
1359
1376
1389
1408
1420
1422
1422
1434
1439
1444
1449
1454
1459
1467
1470
1462
1456
1460
1457
1455
1453
1452
1452
1455
1451
1436
1429
1426
1420
1413
1408
1403
1401
1400
1393
1377
1369
1364
1358
1352
1349
1346
1349
1350
1344
1327
1328
1323
1318
1313
1310
1307
1309
1308
1301
1286
1289
1281
1276
1268
1264
1257
1257
1251
1237
1223
1220
1211
1204
1195
1189
1182
1180
1172
1154
1139
1134
1122
1112
1103
1094
1086
1081
1069
1047
1035
1028
1017
1007
999
991
986
980
968
947
935
925
914
902
894
883
880
873
858
832
825
811
798
785
776
766
761
754
741
719
717
703
692
680
673
664
660
652
637
620
614
603
593
584
577
571
570
565
550
539
538
532
527
524
524
526
530
529
516
515
516
515
513
514
514
516
518
516
504
502
500
497
494
494
493
499
501
494
478
479
474
470
465
465
463
468
470
464
450
456
451
450
447
447
446
449
448
438
429
429
422
417
411
405
401
400
394
379
369
369
364
360
358
357
360
366
366
356
359
363
366
368
372
375
379
385
386
378
383
387
391
393
399
403
413
419
417
406
410
408
408
408
410
412
421
425
422
411
422
423
426
429
436
444
456
465
466
467
479
485
492
498
507
516
528
534
529
527
533
533
532
532
532
534
538
536
523
521
522
519
517
516
513
513
514
509
493
490
484
477
465
458
447
443
435
420
396
387
373
360
346
336
324
319
309
291
267
263
250
241
231
225
220
218
214
201
189
188
180
175
169
166
164
165
160
144
133
130
121
114
108
103
102
102
96
78
72
68
60
54
50
46
45
46
42
27
29
26
25
22
23
21
25
26
20
7
7
2
-1
-8
-12
-19
-18
-23
-36
-56
-56
-66
-73
-80
-85
-90
-91
-98
-112
-126
-129
-138
-146
-153
-157
-159
-157
-161
-175
-182
-182
-187
-191
-193
-194
-191
-187
-189
-203
-206
-207
-211
-215
-217
-219
-216
-212
-215
-229
-225
-227
-228
-231
-230
-231
-227
-225
-230
-241
-238
-241
-242
-246
-247
-249
-242
-242
-249
-261
-255
-257
-255
-254
-250
-248
-242
-242
-250
-258
-254
-258
-259
-261
-262
-261
-256
-257
-268
-272
-268
-269
-268
-266
-264
-258
-250
-250
-259
-258
-255
-255
-254
-252
-250
-244
-237
-237
-250
-243
-244
-244
-245
-241
-238
-229
-222
-221
-227
-219
-217
-214
-214
-209
-206
-195
-191
-196
-204
-199
-200
-200
-199
-197
-194
-187
-185
-192
-197
-191
-191
-189
-188
-186
-181
-174
-172
-180
-180
-175
-173
-171
-166
-161
-152
-143
-140
-146
-143
-136
-131
-125
-117
-107
-92
-78
-70
-74
-59
-51
-42
-34
-21
-10
6
20
28
29
44
51
59
63
70
74
85
91
87
79
84
82
80
79
79
80
87
90
85
82
90
93
96
100
106
114
124
129
123
125
131
133
133
135
137
142
148
148
139
138
141
143
146
151
157
171
183
188
182
197
206
217
227
241
254
272
287
295
296
314
323
336
346
361
374
394
408
414
418
432
441
450
459
469
479
493
501
499
498
506
507
508
509
512
516
523
524
513
512
514
512
509
508
504
503
502
494
477
468
461
452
442
433
423
418
409
393
365
357
342
329
315
305
294
288
280
266
243
240
226
215
203
194
185
181
171
154
135
126
111
98
84
73
63
57
45
22
2
-8
-24
-38
-51
-61
-67
-70
-79
-98
-106
-111
-118
-126
-130
-134
-135
-134
-137
-148
-150
-151
-154
-158
-160
-164
-162
-165
-177
-202
-210
-226
-244
-265
-285
-308
-326
-347
-378
-418
-441
-477
-513
-554
-594
-641
-687
-744
-816
-892
-961
-1036
-1110
-1184
-1256
-1326
-1392
-1464
-1547
-1628
-1702
-1787
-1875
-1968
-2064
-2165
-2271
-2388
-2522
-2650
-2784
-2927
-3078
-3230
-3387
-3544
-3701
-3863
-4032
-4187
-4339
-4487
-4633
-4770
-4902
-5020
-5133
-5244
-5353
-5436
-5514
-5582
-5641
-5690
-5734
-5768
-5800
-5833
-5865
-5862
-5854
-5820
-5762
-5675
-5563
-5421
-5261
-5087
-4894
-4674
-4448
-4211
-3969
-3725
-3485
-3247
-3021
-2809
-2598
-2380
-2168
-1958
-1750
-1548
-1352
-1164
-993
-843
-689
-541
-401
-266
-133
-3
127
257
380
492
612
725
833
931
1027
1112
1198
1275
1338
1385
1440
1484
1522
1552
1578
1597
1618
1630
1630
1618
1624
1616
1606
1592
1577
1560
1544
1522
1492
1460
1438
1409
1383
1356
1331
1307
1287
1261
1226
1197
1179
1156
1137
1120
1106
1097
1091
1081
1061
1055
1052
1047
1044
1044
1044
1046
1048
1045
1032
1031
1026
1021
1012
1007
1000
1000
997
985
968
964
955
948
939
934
929
932
931
923
908
913
909
906
902
901
899
899
897
886
874
873
865
858
851
845
839
838
831
814
804
802
796
791
788
785
787
790
786
772
770
770
769
769
771
773
777
781
779
763
762
754
747
736
727
715
708
698
680
654
641
623
606
588
574
559
554
544
526
501
496
481
470
458
448
439
435
427
412
398
395
385
378
371
366
362
363
358
344
336
336
330
324
319
313
310
306
294
272
260
251
240
229
220
212
207
202
192
171
169
161
156
148
146
142
143
142
134
118
116
108
101
91
86
78
78
72
57
35
29
15
3
-9
-19
-28
-34
-43
-61
-78
-83
-94
-102
-109
-114
-115
-112
-113
-124
-126
-122
-122
-123
-121
-120
-114
-109
-110
-121
-124
-124
-128
-132
-134
-138
-137
-137
-143
-161
-160
-165
-167
-171
-170
-171
-167
-165
-168
-178
-173
-174
-172
-173
-170
-171
-164
-164
-174
-189
-190
-199
-207
-215
-221
-228
-231
-239
-257
-273
-280
-294
-305
-316
-323
-328
-327
-331
-345
-350
-349
-352
-355
-355
-356
-352
-348
-350
-362
-366
-367
-372
-377
-380
-384
-384
-383
-389
-407
-405
-410
-413
-417
-417
-419
-415
-413
-416
-427
-419
-419
-416
-415
-410
-409
-401
-400
-408
-419
-419
-425
-431
-437
-440
-444
-442
-447
-461
-474
-476
-485
-492
-497
-501
-502
-499
-503
-518
-524
-526
-533
-540
-547
-554
-557
-560
-568
-584
-593
-599
-607
-616
-624
-631
-631
-633
-642
-661
-660
-665
-669
-674
-675
-678
-674
-671
-675
-687
-680
-683
-682
-685
-683
-684
-680
-681
-689
-699
-697
-700
-701
-703
-702
-700
-694
-694
-703
-709
-703
-703
-701
-698
-692
-683
-670
-665
-671
-667
-660
-655
-650
-642
-635
-623
-611
-605
-607
-601
-594
-588
-582
-574
-567
-553
-541
-538
-546
-536
-534
-532
-532
-532
-534
-531
-532
-540
-556
-553
-562
-566
-573
-575
-579
-577
-579
-588
-597
-594
-596
-597
-598
-597
-595
-590
-590
-599
-605
-600
-600
-598
-594
-589
-581
-572
-568
-575
-572
-566
-562
-559
-552
-546
-536
-525
-520
-523
-519
-514
-510
-508
-502
-497
-484
-475
-474
-483
-473
-470
-465
-460
-452
-443
-427
-413
-404
-404
-381
-370
-354
-340
-320
-300
-275
-251
-235
-217
-189
-167
-142
-119
-93
-66
-36
-12
1
19
46
67
90
113
137
164
194
217
230
255
283
309
335
364
392
423
454
479
495
520
545
569
590
616
639
670
697
715
723
746
762
780
796
815
832
856
875
887
889
912
923
937
950
967
983
1003
1019
1027
1035
1052
1063
1074
1085
1097
1110
1128
1139
1141
1147
1161
1168
1175
1182
1189
1199
1211
1216
1211
1217
1225
1231
1236
1244
1251
1260
1269
1274
1268
1275
1281
1287
1292
1301
1308
1321
1331
1332
1325
1333
1337
1341
1344
1349
1352
1361
1365
1360
1346
1352
1348
1345
1342
1342
1343
1347
1348
1340
1332
1333
1328
1324
1319
1316
1314
1316
1312
1297
1286
1283
1274
1265
1257
1250
1246
1244
1235
1216
1209
1204
1196
1189
1183
1176
1172
1170
1162
1144
1142
1136
1131
1124
1121
1117
1119
1118
1109
1093
1091
1084
1077
1069
1064
1058
1059
1054
1041
1021
1020
1010
1004
998
994
991
991
987
974
961
959
950
942
934
929
927
929
925
911
903
901
894
887
881
875
872
870
861
840
830
821
809
796
783
767
753
738
717
683
666
641
617
589
564
534
508
477
438
388
348
300
252
198
145
88
35
-26
-98
-178
-242
-316
-391
-467
-545
-626
-707
-796
-898
-1004
-1104
-1213
-1322
-1432
-1544
-1656
-1769
-1891
-2027
-2160
-2290
-2430
-2574
-2724
-2879
-3035
-3197
-3371
-3562
-3747
-3934
-4125
-4317
-4509
-4701
-4886
-5066
-5243
-5422
-5570
-5710
-5831
-5937
-6018
-6083
-6122
-6141
-6142
-6128
-6077
-6012
-5925
-5825
-5708
-5581
-5439
-5297
-5159
-5022
-4867
-4713
-4548
-4370
-4175
-3964
-3737
-3504
-3271
-3032
-2778
-2528
-2274
-2018
-1758
-1498
-1237
-989
-760
-533
-309
-96
111
313
507
695
873
1034
1175
1312
1439
1549
1647
1735
1811
1880
1939
1981
2003
2035
2051
2059
2057
2049
2032
2013
1985
1945
1893
1852
1801
1750
1695
1643
1589
1544
1494
1436
1378
1335
1289
1246
1207
1172
1140
1114
1085
1050
1018
999
976
956
938
922
909
900
886
862
846
837
825
815
809
804
804
805
800
786
782
781
778
776
777
778
786
792
791
779
786
785
786
785
788
788
794
797
794
783
789
785
785
781
783
783
789
791
785
778
782
781
781
782
784
786
793
795
788
783
788
787
786
784
784
786
790
788
776
773
774
772
770
771
772
776
782
781
772
772
773
774
775
778
780
788
793
790
775
779
776
774
771
771
771
775
777
773
761
768
765
766
766
770
773
782
787
784
779
785
785
786
785
787
788
794
794
784
776
778
772
768
763
760
759
761
756
740
733
730
722
713
706
696
688
679
665
641
626
612
598
582
568
554
546
534
513
482
469
450
432
413
396
379
367
353
333
304
296
278
264
249
240
230
226
218
201
184
176
162
149
136
125
114
107
93
69
48
36
17
-1
-18
-34
-46
-55
-69
-95
-109
-120
-133
-146
-157
-168
-175
-181
-191
-210
-219
-228
-237
-248
-256
-266
-268
-275
-290
-315
-322
-335
-346
-358
-368
-379
-386
-396
-413
-439
-444
-460
-471
-483
-490
-497
-499
-505
-519
-533
-537
-547
-554
-563
-569
-574
-575
-582
-599
-612
-617
-628
-638
-647
-656
-660
-661
-668
-686
-692
-696
-703
-709
-713
-718
-720
-721
-727
-742
-745
-750
-756
-764
-769
-775
-774
-776
-786
-802
-803
-808
-810
-814
-814
-816
-810
-809
-817
-832
-826
-831
-832
-835
-834
-835
-833
-835
-847
-859
-861
-869
-874
-879
-882
-883
-880
-882
-894
-902
-901
-905
-908
-909
-909
-904
-897
-898
-909
-908
-906
-907
-907
-906
-904
-901
-897
-898
-909
-907
-908
-908
-912
-912
-914
-910
-909
-915
-929
-929
-933
-937
-942
-944
-949
-946
-949
-960
-978
-974
-980
-983
-986
-987
-988
-985
-986
-996
-1005
-1004
-1010
-1013
-1016
-1018
-1019
-1017
-1021
-1035
-1043
-1042
-1046
-1048
-1049
-1049
-1045
-1039
-1041
-1053
-1054
-1053
-1054
-1054
-1051
-1048
-1043
-1035
-1034
-1042
-1035
-1034
-1031
-1031
-1026
-1023
-1014
-1008
-1008
-1014
-1008
-1005
-1002
-1000
-995
-991
-979
-971
-972
-977
-962
-954
-943
-931
-916
-900
-879
-861
-850
-838
-814
-796
-776
-757
-735
-712
-687
-669
-661
-648
-628
-613
-598
-581
-564
-543
-520
-505
-500
-483
-464
-447
-430
-412
-394
-374
-353
-338
-336
-317
-304
-290
-280
-265
-253
-235
-220
-211
-208
-193
-182
-170
-160
-145
-132
-110
-94
-86
-83
-64
-52
-37
-21
-3
17
42
63
77
93
122
144
169
195
223
253
285
312
328
353
384
411
439
468
498
531
565
592
609
636
665
691
718
745
772
801
830
853
864
893
915
939
961
987
1010
1038
1063
1080
1090
1114
1131
1151
1168
1188
1207
1233
1252
1262
1267
1286
1298
1310
1321
1334
1346
1361
1371
1372
1374
1386
1392
1399
1407
1417
1428
1443
1452
1450
1455
1466
1473
1480
1488
1495
1506
1516
1519
1513
1517
1524
1528
1533
1538
1542
1551
1558
1557
1543
1549
1546
1545
1542
1544
1544
1548
1548
1542
1526
1527
1520
1516
1510
1509
1505
1510
1509
1498
1485
1484
1477
1471
1465
1461
1458
1459
1455
1441
1428
1426
1416
1408
1399
1392
1387
1386
1380
1364
1357
1354
1348
1341
1337
1332
1331
1331
1324
1309
1303
1301
1296
1291
1288
1284
1287
1287
1280
1260
1261
1253
1247
1239
1233
1226
1223
1217
1205
1185
1183
1172
1165
1156
1152
1146
1147
1143
1131
1118
1116
1110
1105
1101
1098
1098
1101
1099
1087
1077
1076
1069
1064
1059
1057
1057
1059
1055
1040
1034
1031
1024
1017
1013
1008
1007
1008
1004
991
987
984
980
975
973
969
973
974
970
954
956
951
947
942
939
934
934
931
921
902
903
893
886
877
870
861
858
849
833
815
809
797
787
778
771
765
764
757
740
726
723
714
706
699
694
692
692
685
667
659
654
646
637
631
624
622
620
613
596
588
580
571
559
551
541
539
533
519
496
489
476
464
450
438
425
417
407
390
366
363
350
339
327
318
308
303
294
276
259
253
241
232
221
213
205
202
192
173
157
151
140
131
124
119
116
116
109
90
83
77
69
61
57
52
51
50
45
31
26
20
13
5
1
-6
-5
-7
-18
-38
-41
-49
-57
-65
-71
-77
-77
-79
-88
-105
-100
-106
-108
-110
-107
-106
-100
-97
-102
-108
-104
-105
-104
-104
-103
-102
-97
-98
-108
-115
-112
-115
-117
-117
-116
-112
-106
-106
-118
-117
-113
-112
-110
-105
-101
-95
-87
-85
-93
-90
-89
-87
-86
-82
-79
-69
-63
-64
-75
-70
-71
-70
-71
-70
-69
-61
-57
-60
-73
-64
-67
-68
-69
-68
-67
-61
-59
-64
-69
-63
-63
-60
-59
-55
-50
-42
-39
-47
-49
-43
-41
-40
-37
-35
-29
-22
-21
-32
-30
-26
-24
-21
-15
-10
-2
6
9
1
8
10
15
18
25
32
47
58
63
61
72
78
86
93
103
111
127
136
136
127
136
135
135
134
137
139
145
148
143
139
146
146
149
151
155
161
171
176
170
171
179
182
185
189
191
198
207
210
202
205
209
212
215
220
224
231
238
239
228
233
232
232
229
229
227
230
230
223
209
210
205
203
200
202
202
211
216
211
200
206
204
205
205
209
214
223
228
224
220
226
224
223
223
225
229
238
241
233
232
237
238
240
243
246
253
260
261
253
256
261
262
263
265
266
271
275
273
260
265
264
265
264
267
268
273
276
272
261
265
263
264
262
265
265
272
273
263
248
249
243
238
234
232
230
230
225
209
192
184
167
151
134
117
103
92
76
50
31
18
1
-16
-30
-44
-53
-61
-74
-97
-110
-120
-133
-146
-156
-166
-170
-174
-183
-203
-203
-210
-214
-219
-220
-223
-222
-224
-232
-246
-246
-253
-259
-268
-272
-279
-277
-282
-295
-311
-313
-321
-326
-332
-334
-336
-333
-334
-343
-350
-345
-345
-342
-339
-334
-328
-319
-317
-325
-328
-325
-327
-330
-330
-331
-327
-322
-324
-335
-337
-337
-338
-339
-339
-338
-331
-324
-323
-333
-324
-322
-319
-317
-311
-307
-299
-292
-291
-298
-288
-286
-283
-282
-278
-276
-267
-262
-266
-272
-267
-267
-266
-265
-263
-261
-255
-254
-263
-269
-264
-265
-264
-262
-258
-251
-241
-236
-243
-241
-234
-231
-228
-223
-219
-210
-200
-196
-202
-199
-194
-192
-191
-188
-186
-177
-170
-169
-179
-170
-168
-164
-162
-156
-152
-141
-133
-131
-137
-125
-122
-117
-114
-107
-103
-92
-86
-89
-92
-84
-82
-79
-76
-72
-67
-58
-54
-60
-62
-53
-49
-44
-37
-29
-19
-6
2
-2
4
14
21
27
36
44
55
66
71
67
70
75
78
81
86
90
101
109
109
98
105
105
106
105
108
110
118
123
123
113
124
124
128
129
135
140
150
156
154
152
160
162
165
166
170
174
182
185
178
174
180
179
179
180
182
185
191
191
179
178
180
180
179
181
183
188
195
196
189
192
197
202
205
213
219
232
242
243
233
241
244
247
250
257
262
274
283
285
278
290
291
295
297
304
310
320
326
326
324
333
336
339
341
344
347
355
358
350
346
351
350
349
348
346
348
350
346
330
325
321
313
303
294
283
273
263
248
222
207
189
171
150
133
113
100
82
57
22
4
-19
-41
-63
-82
-102
-115
-131
-155
-187
-198
-220
-237
-255
-268
-281
-289
-301
-319
-336
-342
-353
-362
-371
-378
-383
-383
-389
-405
-416
-419
-426
-432
-436
-437
-435
-430
-430
-441
-439
-435
-432
-427
-420
-413
-402
-390
-381
-381
-368
-356
-344
-334
-320
-308
-288
-273
-265
-266
-253
-245
-237
-232
-225
-222
-214
-213
-224
-245
-248
-264
-279
-296
-311
-326
-337
-353
-378
-405
-424
-453
-482
-514
-548
-585
-623
-674
-742
-811
-876
-948
-1021
-1093
-1164
-1231
-1295
-1365
-1447
-1520
-1595
-1676
-1763
-1853
-1949
-2047
-2148
-2259
-2384
-2498
-2622
-2752
-2889
-3027
-3171
-3310
-3452
-3601
-3755
-3891
-4029
-4161
-4292
-4415
-4533
-4635
-4733
-4829
-4920
-4981
-5040
-5087
-5127
-5158
-5184
-5203
-5222
-5244
-5257
-5247
-5227
-5184
-5117
-5021
-4897
-4745
-4576
-4397
-4194
-3968
-3737
-3498
-3256
-3015
-2776
-2543
-2321
-2115
-1905
-1696
-1493
-1293
-1095
-904
-717
-539
-377
-236
-83
58
197
329
465
596
733
865
989
1104
1229
1342
1448
1544
1634
1713
1791
1856
1904
1939
1984
2013
2037
2054
2067
2073
2077
2072
2054
2034
2022
2002
1981
1958
1935
1911
1890
1861
1821
1787
1759
1726
1694
1665
1636
1612
1588
1558
1519
1490
1464
1435
1408
1384
1361
1345
1331
1314
1287
1280
1269
1262
1255
1255
1254
1260
1266
1267
1261
1270
1271
1274
1274
1276
1276
1282
1281
1271
1255
1253
1244
1235
1224
1215
1205
1199
1190
1172
1156
1153
1144
1137
1131
1127
1125
1128
1124
1111
1105
1107
1104
1101
1101
1099
1100
1100
1092
1074
1064
1055
1044
1032
1023
1012
1007
1000
987
962
956
942
930
916
906
894
886
875
857
831
819
799
782
761
745
726
715
698
671
640
623
598
575
552
531
511
496
477
448
422
408
388
371
355
342
330
322
310
287
274
266
255
245
236
227
221
216
204
184
172
164
154
144
135
125
122
116
103
78
73
59
48
36
29
22
20
15
4
-15
-18
-30
-38
-49
-56
-66
-69
-78
-97
-119
-130
-147
-163
-180
-194
-207
-215
-228
-249
-268
-274
-287
-297
-307
-315
-320
-322
-329
-345
-353
-356
-362
-370
-375
-381
-384
-385
-393
-408
-415
-419
-425
-431
-435
-440
-439
-439
-447
-466
-465
-469
-472
-476
-475
-476
-473
-471
-477
-491
-486
-492
-495
-499
-500
-502
-499
-501
-512
-525
-527
-535
-540
-546
-549
-550
-547
-548
-560
-568
-565
-569
-571
-572
-571
-567
-560
-557
-564
-562
-558
-556
-556
-553
-552
-548
-544
-546
-556
-558
-559
-561
-563
-563
-564
-557
-553
-557
-571
-566
-567
-567
-568
-565
-563
-556
-551
-552
-562
-551
-552
-548
-547
-542
-539
-531
-528
-533
-538
-532
-533
-532
-532
-529
-525
-517
-514
-521
-526
-522
-523
-522
-520
-516
-508
-497
-492
-497
-491
-482
-477
-470
-461
-451
-439
-425
-416
-415
-405
-395
-384
-376
-364
-354
-336
-321
-313
-315
-299
-288
-276
-265
-252
-242
-226
-215
-212
-219
-205
-202
-197
-194
-189
-186
-179
-176
-181
-187
-183
-184
-182
-182
-180
-178
-172
-173
-184
-193
-192
-197
-200
-202
-202
-199
-193
-192
-202
-201
-197
-196
-194
-189
-184
-176
-167
-162
-167
-160
-155
-150
-149
-143
-139
-127
-118
-117
-123
-114
-109
-103
-100
-93
-87
-74
-66
-66
-74
-60
-57
-51
-46
-39
-33
-22
-15
-15
-14
-2
5
14
23
33
44
58
67
66
68
79
86
93
101
110
120
131
133
122
122
122
118
115
113
111
112
114
110
96
95
90
85
76
71
64
64
60
48
28
22
9
-3
-16
-26
-37
-40
-46
-60
-81
-81
-91
-97
-104
-108
-111
-108
-109
-116
-121
-115
-115
-112
-109
-104
-97
-85
-78
-81
-76
-63
-53
-42
-29
-14
4
24
37
38
51
65
76
89
103
117
132
148
158
157
171
179
190
197
210
220
237
251
257
256
268
275
283
289
298
305
320
329
329
322
333
334
337
339
344
349
359
365
363
360
369
370
373
375
378
383
391
394
387
387
395
397
402
407
412
421
430
433
425
429
435
439
443
449
455
464
472
474
463
469
470
473
473
477
478
485
489
486
476
480
478
479
478
481
483
494
499
495
486
493
491
492
493
498
504
515
521
519
518
527
530
533
535
539
546
555
559
553
554
561
564
566
571
575
584
593
596
590
593
600
603
607
613
618
627
636
638
629
640
642
647
649
656
660
668
673
670
659
662
657
654
649
648
645
650
648
637
622
622
617
614
612
612
614
620
623
617
612
618
617
617
617
619
622
628
628
617
612
613
608
604
602
599
599
600
594
579
572
568
561
553
548
542
542
541
534
516
519
515
514
511
511
510
514
516
511
499
503
499
499
495
496
494
500
498
488
475
476
471
468
466
467
468
474
476
467
461
465
464
465
467
471
478
488
493
486
488
494
496
497
501
505
513
521
523
516
518
522
524
526
529
533
542
551
553
544
556
561
567
573
582
589
601
612
617
613
628
633
640
645
653
658
668
672
668
662
667
666
667
667
669
672
678
677
667
658
659
655
652
650
649
650
653
649
633
625
620
611
601
594
586
581
577
566
546
534
522
510
496
486
475
470
464
450
425
419
405
393
380
369
358
353
346
332
310
308
296
289
278
272
265
263
256
243
229
227
219
213
206
202
198
199
193
178
167
167
161
157
153
151
152
156
154
141
139
141
140
140
142
145
150
155
155
146
146
146
146
145
148
150
159
164
162
150
155
153
153
152
153
154
162
166
163
150
158
153
151
147
146
143
144
140
129
117
115
106
100
91
84
77
74
64
43
26
18
5
-8
-19
-28
-35
-40
-51
-72
-82
-88
-97
-106
-111
-117
-119
-121
-129
-146
-153
-161
-169
-180
-187
-197
-199
-205
-219
-242
-249
-260
-269
-277
-282
-287
-285
-285
-292
-308
-303
-308
-310
-314
-314
-314
-310
-309
-315
-321
-317
-318
-318
-321
-321
-322
-317
-318
-328
-333
-329
-330
-330
-328
-324
-318
-310
-307
-316
-312
-305
-299
-293
-284
-276
-265
-252
-245
-247
-238
-231
-223
-218
-209
-203
-190
-181
-180
-188
-182
-181
-179
-178
-174
-171
-160
-153
-155
-165
-156
-158
-156
-156
-151
-146
-136
-129
-130
-131
-121
-117
-111
-107
-101
-94
-83
-77
-82
-81
-74
-72
-70
-67
-64
-58
-49
-47
-57
-53
-47
-43
-38
-31
-24
-14
-2
5
1
12
19
27
32
40
45
57
64
64
56
62
63
67
69
74
78
90
98
98
90
103
106
112
118
128
138
152
163
165
168
180
185
193
200
208
217
230
236
231
231
238
238
239
242
246
254
264
268
264
270
278
283
289
297
304
314
324
328
321
330
333
336
336
339
337
341
341
333
319
318
312
308
301
297
290
290
284
268
246
242
230
221
212
204
197
194
188
172
157
155
146
140
134
132
133
137
136
125
119
121
118
116
116
116
120
125
122
109
105
102
95
89
83
76
74
72
65
46
46
40
37
31
30
27
29
29
23
10
12
7
5
1
-1
-5
-1
-4
-16
-32
-32
-39
-45
-51
-55
-59
-59
-64
-77
-88
-88
-94
-97
-100
-100
-97
-91
-91
-101
-105
-102
-104
-106
-105
-104
-99
-95
-98
-110
-114
-117
-122
-127
-129
-132
-130
-128
-131
-147
-143
-145
-146
-149
-148
-149
-145
-142
-145
-155
-150
-152
-152
-155
-153
-154
-147
-145
-153
-165
-164
-169
-172
-174
-175
-175
-171
-171
-181
-188
-184
-187
-186
-186
-184
-180
-174
-173
-182
-184
-181
-181
-181
-180
-179
-175
-170
-172
-183
-184
-183
-184
-185
-183
-182
-175
-169
-169
-181
-173
-172
-169
-166
-159
-154
-144
-136
-135
-141
-131
-132
-130
-131
-129
-130
-125
-125
-135
-147
-146
-151
-153
-156
-156
-156
-150
-148
-154
-158
-149
-146
-140
-133
-125
-114
-99
-91
-94
-88
-78
-71
-64
-55
-46
-35
-24
-20
-25
-24
-22
-21
-21
-18
-15
-5
2
1
-10
-2
0
3
5
11
16
25
32
32
22
31
29
29
26
27
27
33
34
28
22
26
24
25
26
30
36
47
54
52
54
67
73
80
88
98
109
123
132
130
138
150
158
167
177
188
201
214
221
220
227
236
245
252
262
271
286
298
301
292
302
305
309
312
318
323
333
340
340
331
342
342
345
345
348
349
354
354
345
334
331
321
313
304
297
291
290
284
268
256
254
247
240
234
231
230
231
227
212
209
209
205
201
199
197
198
200
198
189
190
191
193
194
198
200
209
215
212
200
206
205
205
204
206
206
211
213
205
189
194
187
184
179
178
176
179
177
168
159
161
157
156
153
153
152
156
155
143
133
132
125
118
113
109
109
111
107
92
89
87
83
79
77
74
74
75
69
53
46
37
25
10
-3
-20
-31
-46
-69
-103
-123
-151
-182
-218
-255
-297
-338
-389
-452
-530
-592
-669
-743
-820
-893
-968
-1038
-1111
-1192
-1273
-1345
-1427
-1511
-1601
-1693
-1792
-1892
-2004
-2132
-2260
-2385
-2523
-2667
-2817
-2970
-3124
-3281
-3445
-3620
-3781
-3934
-4084
-4227
-4361
-4488
-4605
-4711
-4814
-4916
-4996
-5069
-5133
-5190
-5234
-5274
-5301
-5327
-5356
-5384
-5387
-5379
-5349
-5296
-5213
-5105
-4962
-4800
-4624
-4436
-4211
-3982
-3740
-3493
-3241
-2993
-2746
-2509
-2285
-2066
-1840
-1623
-1406
-1193
-982
-778
-580
-400
-242
-89
62
199
330
456
579
701
821
930
1024
1124
1218
1301
1376
1445
1507
1565
1618
1659
1683
1714
1734
1748
1753
1757
1754
1753
1746
1729
1702
1687
1664
1641
1613
1586
1556
1532
1503
1464
1420
1394
1358
1324
1289
1256
1223
1193
1161
1121
1081
1055
1023
994
968
945
923
907
887
858
836
824
810
799
791
785
784
784
778
762
757
754
748
742
739
735
734
734
727
709
709
702
696
688
685
680
682
681
675
661
661
655
650
642
638
633
636
634
624
607
608
599
594
588
583
578
577
573
560
549
550
544
540
536
534
533
535
532
517
509
508
501
493
486
478
473
468
456
433
420
410
398
386
377
368
362
357
346
324
321
313
307
300
298
294
295
295
288
275
276
270
266
260
258
253
257
254
241
224
221
211
202
193
184
176
172
165
148
133
129
119
110
100
92
87
85
78
61
53
52
47
43
40
38
39
41
36
21
16
14
9
5
1
-2
-1
-1
-8
-26
-24
-30
-33
-37
-36
-37
-32
-29
-32
-42
-36
-36
-34
-35
-31
-29
-20
-17
-25
-37
-37
-43
-49
-56
-61
-65
-65
-69
-82
-93
-94
-100
-106
-110
-112
-111
-106
-106
-116
-118
-115
-115
-115
-115
-115
-112
-111
-116
-130
-136
-139
-145
-151
-155
-160
-159
-160
-168
-187
-186
-191
-193
-196
-194
-193
-189
-186
-189
-198
-190
-190
-187
-187
-182
-180
-171
-169
-176
-186
-184
-189
-194
-198
-202
-205
-205
-211
-226
-239
-241
-250
-256
-261
-263
-262
-257
-258
-267
-267
-263
-261
-259
-254
-251
-244
-236
-235
-243
-243
-243
-245
-248
-249
-252
-248
-246
-252
-269
-266
-269
-272
-275
-276
-279
-276
-277
-284
-300
-297
-303
-306
-312
-315
-320
-320
-326
-341
-357
-364
-376
-386
-397
-406
-415
-420
-431
-454
-473
-481
-495
-507
-518
-526
-531
-533
-540
-558
-566
-571
-579
-587
-591
-595
-596
-595
-600
-614
-620
-625
-633
-641
-647
-654
-654
-657
-667
-687
-688
-694
-700
-706
-709
-712
-709
-708
-712
-725
-717
-721
-720
-723
-721
-722
-718
-718
-727
-736
-735
-738
-740
-741
-739
-738
-732
-733
-743
-750
-746
-748
-747
-745
-742
-736
-729
-728
-739
-739
-737
-738
-739
-738
-736
-732
-726
-726
-734
-733
-733
-732
-734
-731
-729
-719
-712
-712
-722
-714
-713
-709
-707
-702
-699
-689
-683
-685
-695
-684
-686
-683
-683
-679
-675
-667
-661
-662
-663
-651
-645
-637
-631
-622
-613
-600
-594
-598
-597
-586
-581
-574
-566
-558
-546
-532
-525
-529
-522
-512
-506
-498
-488
-479
-466
-452
-443
-443
-432
-422
-412
-404
-390
-378
-358
-341
-332
-331
-315
-305
-293
-281
-266
-251
-228
-208
-195
-190
-163
-147
-127
-107
-84
-60
-31
-5
14
34
63
86
110
133
157
181
208
229
240
256
281
299
318
338
359
383
407
426
433
453
475
496
516
539
561
586
611
632
644
669
690
710
729
751
770
795
816
829
833
850
862
876
889
905
921
943
961
970
973
995
1006
1020
1033
1049
1065
1086
1103
1112
1120
1139
1150
1162
1173
1185
1197
1213
1221
1218
1220
1229
1232
1235
1238
1241
1247
1253
1253
1242
1242
1246
1248
1251
1257
1262
1270
1280
1286
1281
1291
1297
1305
1311
1320
1326
1338
1346
1347
1340
1345
1346
1348
1348
1350
1351
1358
1359
1350
1334
1337
1330
1325
1321
1321
1321
1326
1326
1318
1310
1313
1308
1304
1300
1297
1296
1298
1293
1279
1270
1267
1260
1252
1246
1240
1237
1235
1227
1209
1201
1195
1187
1178
1171
1163
1159
1154
1143
1122
1120
1111
1104
1095
1090
1083
1080
1075
1063
1045
1040
1029
1021
1010
1004
995
994
986
969
946
940
927
916
904
895
886
881
872
855
839
834
822
813
805
800
797
799
795
782
775
774
769
763
759
756
756
757
751
735
728
723
715
707
701
695
693
692
685
667
669
665
664
660
660
659
662
663
659
647
651
649
649
647
648
647
653
653
643
630
632
627
624
621
620
619
621
619
608
597
596
588
582
575
570
567
568
562
544
534
528
518
508
500
493
490
488
480
462
453
446
437
428
420
411
408
403
391
367
360
346
332
315
300
282
267
250
227
197
184
164
147
128
115
100
93
82
63
42
36
25
17
9
4
-1
-1
-7
-22
-35
-37
-46
-52
-58
-62
-65
-65
-72
-91
-102
-109
-118
-127
-134
-139
-141
-141
-147
-162
-168
-170
-174
-177
-177
-178
-172
-168
-172
-187
-184
-188
-191
-196
-198
-202
-200
-201
-208
-222
-219
-225
-229
-237
-241
-247
-246
-250
-262
-275
-277
-283
-288
-294
-297
-299
-299
-303
-316
-326
-325
-329
-332
-334
-334
-332
-327
-328
-339
-341
-339
-339
-340
-338
-336
-332
-327
-329
-340
-342
-342
-344
-347
-345
-345
-336
-331
-333
-345
-338
-337
-335
-333
-326
-320
-309
-300
-298
-305
-292
-291
-286
-285
-280
-277
-269
-266
-271
-279
-277
-281
-283
-285
-285
-284
-279
-280
-290
-295
-291
-291
-291
-289
-286
-279
-270
-265
-271
-267
-259
-255
-251
-244
-238
-230
-221
-218
-223
-219
-214
-209
-206
-200
-196
-185
-176
-174
-182
-171
-167
-161
-155
-146
-137
-121
-109
-103
-106
-88
-81
-71
-64
-54
-46
-33
-25
-26
-27
-17
-14
-10
-7
-2
2
10
11
1
-5
-2
-4
-5
-6
-5
-1
6
7
-4
-3
0
1
3
7
11
19
28
31
26
32
37
42
45
53
59
74
85
87
81
91
96
102
108
116
124
138
149
152
146
162
167
174
182
194
205
220
232
237
242
258
268
279
290
304
317
333
343
343
348
361
368
377
387
397
411
427
437
435
445
457
467
476
487
497
510
523
532
533
545
555
565
573
585
595
611
622
626
619
626
626
626
624
624
621
624
623
611
591
590
577
566
554
545
536
530
521
505
487
481
468
458
447
438
430
426
416
396
380
373
361
350
340
332
328
326
319
301
295
291
284
278
274
270
269
269
264
250
250
246
243
237
236
233
237
238
231
216
216
210
206
201
198
194
197
195
185
168
171
164
159
154
151
147
147
142
129
115
112
103
94
85
79
72
70
62
43
30
25
15
6
0
-7
-9
-10
-17
-34
-39
-42
-47
-51
-52
-53
-52
-50
-54
-70
-71
-78
-84
-94
-100
-108
-110
-115
-126
-143
-145
-153
-158
-165
-167
-170
-164
-163
-171
-185
-181
-185
-187
-189
-189
-189
-185
-185
-194
-203
-203
-209
-214
-218
-221
-223
-222
-226
-240
-248
-249
-255
-261
-266
-271
-271
-269
-274
-287
-289
-289
-291
-293
-293
-295
-293
-292
-296
-312
-309
-313
-315
-318
-318
-320
-317
-315
-321
-332
-330
-333
-333
-335
-333
-333
-326
-325
-333
-346
-343
-347
-349
-352
-352
-352
-347
-347
-356
-365
-362
-366
-368
-368
-366
-362
-353
-350
-357
-357
-350
-347
-344
-340
-335
-327
-317
-315
-322
-320
-315
-314
-313
-311
-309
-302
-295
-294
-304
-293
-290
-283
-279
-271
-264
-252
-243
-239
-242
-228
-222
-212
-205
-193
-185
-170
-162
-163
-168
-159
-156
-151
-147
-140
-133
-123
-118
-123
-128
-122
-122
-120
-117
-110
-101
-88
-80
-82
-77
-67
-62
-57
-48
-39
-26
-12
-4
-6
-1
6
10
13
18
21
31
39
40
30
39
41
44
47
53
57
67
75
78
75
89
95
105
110
120
127
140
148
147
143
152
154
158
161
164
167
173
173
162
154
156
152
149
146
144
145
147
143
127
120
117
110
104
99
95
94
93
87
70
60
53
44
35
28
21
20
18
8
-13
-15
-24
-32
-39
-43
-46
-43
-40
-44
-53
-43
-43
-39
-36
-28
-22
-10
-2
-3
-5
3
5
8
9
9
8
9
2
-16
-32
-39
-54
-68
-82
-95
-107
-118
-137
-170
-195
-220
-251
-287
-325
-370
-418
-473
-540
-617
-688
-757
-828
-899
-967
-1037
-1102
-1172
-1253
-1350
-1433
-1529
-1630
-1737
-1847
-1962
-2077
-2200
-2335
-2486
-2622
-2775
-2929
-3089
-3246
-3405
-3555
-3705
-3858
-4007
-4140
-4274
-4399
-4518
-4626
-4726
-4812
-4894
-4977
-5048
-5100
-5151
-5193
-5230
-5258
-5275
-5278
-5269
-5249
-5191
-5102
-4989
-4849
-4682
-4494
-4286
-4061
-3828
-3595
-3346
-3095
-2845
-2603
-2362
-2130
-1897
-1673
-1460
-1261
-1050
-852
-662
-484
-315
-160
-10
126
245
346
460
556
651
742
835
924
1014
1095
1161
1219
1280
1328
1370
1406
1440
1470
1500
1518
1520
1521
1527
1521
1513
1503
1490
1478
1465
1443
1408
1383
1359
1330
1299
1270
1238
1209
1181
1149
1107
1077
1047
1018
987
961
933
914
891
861
824
805
783
765
748
737
728
727
724
715
698
704
699
699
697
700
702
708
711
704
697
699
694
689
684
681
679
680
676
663
655
655
650
646
644
643
646
653
654
645
649
656
660
666
673
679
688
697
702
696
702
705
708
708
711
711
717
719
713
699
700
697
695
692
692
690
695
695
687
671
675
669
666
662
661
660
663
661
652
642
643
638
635
631
629
627
629
624
608
596
590
579
569
560
552
548
547
541
523
517
513
507
500
496
491
489
489
484
469
468
463
458
450
447
443
444
443
435
419
417
410
403
395
389
381
379
371
355
332
329
316
306
296
290
284
282
277
264
253
254
249
247
244
244
244
248
246
233
225
223
217
211
205
200
198
198
191
173
166
160
151
143
136
129
124
121
111
90
85
74
63
50
41
30
26
18
5
-15
-21
-32
-41
-53
-61
-71
-74
-82
-99
-122
-127
-140
-152
-164
-175
-185
-191
-201
-219
-236
-240
-251
-259
-266
-270
-272
-270
-274
-286
-291
-289
-291
-292
-290
-289
-283
-276
-275
-286
-286
-285
-285
-284
-281
-279
-272
-266
-267
-278
-271
-272
-271
-273
-270
-270
-264
-261
-265
-276
-274
-280
-285
-292
-295
-300
-296
-298
-309
-323
-322
-328
-333
-338
-342
-346
-348
-354
-369
-382
-384
-394
-401
-409
-415
-420
-422
-430
-448
-458
-462
-469
-475
-479
-483
-482
-481
-487
-502
-509
-513
-519
-526
-531
-536
-536
-537
-545
-565
-566
-575
-581
-589
-592
-597
-598
-600
-609
-626
-626
-635
-642
-652
-658
-665
-664
-668
-681
-696
-697
-705
-710
-715
-718
-721
-719
-722
-733
-743
-741
-746
-751
-756
-760
-763
-763
-770
-787
-796
-801
-809
-817
-824
-831
-835
-839
-850
-870
-881
-888
-898
-908
-915
-923
-925
-928
-939
-960
-961
-968
-973
-978
-979
-980
-977
-975
-980
-993
-988
-993
-995
-1000
-1001
-1005
-1001
-1003
-1014
-1026
-1028
-1035
-1041
-1047
-1051
-1052
-1049
-1050
-1059
-1064
-1059
-1060
-1059
-1057
-1053
-1046
-1037
-1032
-1039
-1036
-1028
-1024
-1020
-1015
-1010
-1002
-993
-990
-994
-989
-981
-972
-964
-952
-940
-922
-906
-898
-900
-884
-874
-862
-850
-834
-819
-799
-782
-771
-767
-744
-730
-712
-697
-677
-659
-636
-617
-607
-598
-580
-567
-552
-538
-522
-505
-484
-469
-463
-455
-436
-423
-409
-394
-377
-357
-333
-314
-305
-285
-262
-242
-224
-202
-180
-156
-130
-109
-95
-72
-48
-25
-3
21
44
75
101
119
129
157
178
201
223
248
272
300
325
344
355
387
408
434
457
485
511
542
568
586
602
628
648
668
687
706
725
747
763
768
775
792
803
817
832
848
868
891
908
914
931
951
967
983
1002
1021
1043
1066
1084
1093
1111
1129
1146
1161
1178
1193
1215
1233
1242
1242
1258
1268
1277
1286
1297
1306
1321
1333
1338
1333
1351
1357
1366
1373
1384
1393
1406
1414
1414
1413
1422
1425
1429
1433
1438
1444
1453
1456
1449
1446
1451
1450
1449
1450
1452
1457
1462
1460
1447
1443
1441
1436
1432
1429
1426
1425
1426
1422
1408
1405
1400
1396
1390
1387
1384
1388
1387
1379
1362
1359
1351
1343
1334
1328
1319
1318
1313
1300
1279
1279
1270
1263
1256
1252
1247
1246
1241
1228
1215
1215
1208
1203
1197
1192
1188
1187
1179
1161
1147
1141
1130
1120
1112
1105
1101
1098
1088
1066
1057
1048
1037
1026
1018
1010
1005
1002
993
975
970
961
953
943
937
929
927
921
907
885
877
863
849
834
823
810
805
797
780
756
753
740
730
720
713
706
703
696
682
668
666
658
652
645
639
634
632
624
606
592
586
574
563
553
543
534
527
511
485
470
457
443
430
420
411
405
400
390
370
366
356
347
336
330
323
322
319
307
289
283
272
262
251
243
234
233
226
210
187
182
168
155
143
134
125
121
115
101
89
89
83
80
77
77
79
85
85
76
73
78
77
77
78
79
84
90
90
80
81
86
90
94
101
108
119
129
133
125
135
138
143
146
153
157
166
172
170
159
162
159
158
154
154
152
157
157
147
132
134
126
120
114
110
106
107
104
94
84
87
82
79
77
77
78
83
80
68
64
65
61
56
52
47
46
46
39
23
16
13
7
3
0
-3
-1
0
-4
-20
-15
-16
-15
-15
-10
-7
1
7
6
-3
3
2
5
5
9
11
20
22
13
0
1
-5
-10
-14
-15
-14
-10
-10
-19
-28
-26
-30
-31
-31
-28
-21
-11
-7
-12
-10
-2
1
5
11
16
24
33
36
30
33
38
42
45
49
54
64
73
76
67
79
83
89
94
103
110
121
131
134
130
142
146
153
157
165
170
181
187
183
176
180
179
179
179
181
184
191
192
185
180
186
185
186
189
193
200
210
214
208
208
214
216
219
224
228
236
245
246
238
237
239
238
237
238
239
246
251
249
236
243
242
243
243
245
245
249
250
245
233
239
235
235
231
232
230
235
233
223
211
210
204
200
196
193
191
193
189
176
165
165
157
151
146
142
141
142
138
121
113
109
101
94
88
83
82
81
74
58
50
43
33
23
15
7
6
3
-7
-27
-26
-33
-39
-45
-48
-53
-53
-56
-64
-81
-77
-84
-88
-94
-96
-101
-99
-102
-112
-123
-122
-126
-128
-128
-127
-124
-116
-116
-126
-133
-130
-133
-136
-138
-141
-143
-143
-151
-171
-182
-191
-203
-216
-227
-237
-243
-247
-257
-275
-283
-289
-296
-302
-305
-309
-306
-306
-313
-331
-331
-338
-345
-354
-361
-372
-378
-389
-410
-439
-449
-470
-489
-509
-526
-543
-556
-573
-600
-630
-651
-681
-712
-749
-790
-836
-883
-940
-1011
-1080
-1142
-1210
-1277
-1344
-1411
-1475
-1539
-1610
-1695
-1773
-1853
-1941
-2033
-2127
-2228
-2334
-2448
-2576
-2723
-2868
-3023
-3185
-3354
-3523
-3695
-3857
-4019
-4186
-4359
-4511
-4666
-4817
-4965
-5103
-5233
-5346
-5451
-5553
-5651
-5717
-5782
-5834
-5877
-5907
-5931
-5941
-5943
-5938
-5914
-5859
-5787
-5687
-5562
-5409
-5232
-5030
-4817
-4600
-4370
-4127
-3889
-3654
-3424
-3202
-2984
-2771
-2572
-2390
-2203
-2020
-1848
-1684
-1527
-1378
-1234
-1094
-962
-842
-710
-580
-451
-326
-198
-73
56
178
289
389
499
601
700
792
885
972
1063
1143
1209
1259
1322
1368
1411
1447
1481
1510
1537
1555
1560
1561
1567
1562
1556
1546
1536
1526
1520
1507
1484
1465
1453
1436
1419
1402
1387
1376
1368
1353
1328
1316
1307
1298
1291
1288
1287
1290
1298
1301
1296
1307
1316
1328
1337
1351
1363
1381
1394
1399
1395
1404
1406
1408
1407
1408
1405
1409
1405
1391
1369
1367
1354
1344
1335
1329
1324
1322
1317
1304
1290
1287
1276
1268
1259
1253
1247
1245
1236
1216
1201
1193
1177
1161
1145
1129
1115
1101
1079
1048
1028
1010
989
969
951
935
924
915
903
881
877
869
864
857
855
851
853
852
845
832
831
826
822
816
814
809
812
808
796
777
777
769
763
759
757
756
760
759
750
741
742
737
734
730
729
729
732
728
715
708
707
701
695
692
689
691
694
690
675
669
665
658
651
645
638
636
633
626
606
605
597
591
583
579
574
574
573
565
550
550
543
538
531
528
523
526
523
511
495
495
488
483
479
476
474
475
472
460
448
448
440
435
430
428
426
428
423
408
399
397
391
385
382
380
383
387
384
372
368
367
363
359
358
357
361
364
360
344
347
341
336
329
325
318
317
313
302
284
280
267
256
242
232
220
215
204
183
159
148
130
114
96
79
61
45
23
-9
-40
-60
-87
-113
-139
-165
-189
-209
-236
-272
-300
-322
-347
-369
-388
-406
-421
-436
-456
-486
-506
-523
-542
-559
-573
-585
-591
-597
-609
-633
-637
-649
-658
-669
-675
-683
-685
-689
-700
-717
-719
-730
-739
-753
-763
-775
-780
-791
-809
-827
-834
-845
-854
-864
-872
-879
-882
-889
-905
-917
-918
-925
-929
-934
-937
-939
-938
-944
-961
-969
-975
-984
-995
-1005
-1017
-1026
-1036
-1052
-1077
-1094
-1107
-1122
-1137
-1149
-1161
-1166
-1172
-1184
-1208
-1210
-1220
-1227
-1234
-1236
-1239
-1237
-1236
-1241
-1253
-1246
-1249
-1249
-1252
-1251
-1252
-1246
-1246
-1255
-1266
-1268
-1275
-1281
-1288
-1293
-1298
-1298
-1303
-1318
-1330
-1332
-1341
-1348
-1354
-1358
-1359
-1356
-1358
-1371
-1373
-1371
-1373
-1374
-1372
-1371
-1368
-1365
-1367
-1377
-1379
-1378
-1377
-1378
-1375
-1373
-1364
-1359
-1362
-1375
-1369
-1369
-1367
-1364
-1358
-1352
-1340
-1331
-1328
-1332
-1315
-1309
-1299
-1290
-1277
-1264
-1246
-1232
-1226
-1220
-1204
-1194
-1183
-1171
-1157
-1142
-1123
-1108
-1101
-1091
-1071
-1056
-1039
-1022
-1004
-982
-958
-939
-931
-912
-889
-870
-850
-829
-808
-785
-759
-740
-728
-707
-684
-662
-641
-616
-593
-563
-536
-518
-510
-485
-467
-447
-427
-404
-382
-352
-326
-307
-296
-263
-241
-214
-188
-157
-126
-91
-58
-34
-11
23
52
82
113
145
179
218
251
274
299
334
362
392
423
454
489
527
559
579
610
644
674
703
736
768
802
838
869
892
925
957
989
1019
1054
1086
1125
1160
1188
1207
1242
1271
1300
1327
1356
1383
1415
1443
1461
1471
1501
1520
1541
1561
1584
1605
1629
1648
1658
1668
1687
1700
1714
1728
1743
1759
1778
1789
1790
1794
1806
1811
1817
1825
1832
1843
1855
1860
1853
1857
1861
1861
1861
1863
1864
1867
1872
1872
1862
1864
1861
1859
1852
1850
1844
1844
1841
1829
1811
1807
1797
1789
1780
1773
1764
1761
1754
1739
1717
1714
1702
1692
1682
1675
1666
1660
1649
1631
1613
1606
1592
1581
1568
1558
1548
1542
1529
1505
1487
1476
1459
1443
1429
1417
1408
1401
1388
1364
1352
1342
1331
1320
1312
1303
1297
1292
1282
1259
1251
1238
1226
1211
1200
1188
1184
1177
1163
1142
1135
1124
1113
1100
1090
1076
1069
1057
1035
1005
993
971
951
930
911
892
877
858
832
807
795
776
760
744
730
716
705
689
662
641
628
611
595
581
567
558
550
536
512
499
489
478
469
462
457
455
453
445
425
422
414
407
397
392
385
382
376
363
342
334
321
309
296
287
277
276
269
254
234
231
220
209
198
189
180
174
164
144
125
117
101
87
72
59
49
41
29
6
-9
-18
-30
-42
-51
-60
-65
-70
-81
-101
-111
-118
-126
-132
-135
-136
-133
-129
-129
-139
-129
-125
-118
-112
-101
-91
-76
-64
-58
-59
-47
-41
-33
-28
-19
-13
1
9
9
4
13
15
18
21
26
32
42
48
46
45
56
59
64
69
74
82
93
98
92
95
103
107
111
116
121
130
140
142
135
136
141
143
145
149
151
159
165
165
152
160
160
163
165
171
176
185
192
193
187
197
200
206
209
217
222
234
240
237
231
237
236
236
236
237
239
245
247
239
233
239
237
237
238
241
247
255
257
250
251
257
259
260
263
266
272
277
277
269
269
273
273
274
276
277
283
287
283
267
271
267
265
262
263
261
263
263
257
243
246
241
239
235
236
235
240
240
230
218
217
209
202
195
191
187
188
184
170
159
158
149
142
136
132
129
130
126
111
105
103
96
90
86
82
82
83
79
67
64
63
61
59
59
59
66
70
68
55
61
61
62
62
66
67
71
74
70
58
66
63
63
61
63
63
69
69
60
50
51
45
41
36
33
32
34
31
17
5
4
-3
-8
-11
-12
-9
-2
-2
-11
-10
-6
-3
0
6
12
22
32
38
35
41
49
55
59
66
71
83
91
92
82
89
89
88
84
81
74
69
59
40
10
-1
-26
-49
-75
-99
-126
-152
-186
-232
-281
-323
-375
-429
-488
-550
-617
-685
-763
-854
-942
-1020
-1105
-1186
-1266
-1343
-1418
-1492
-1576
-1675
-1767
-1862
-1964
-2070
-2177
-2288
-2401
-2519
-2648
-2791
-2930
-3073
-3218
-3367
-3512
-3655
-3787
-3916
-4045
-4175
-4281
-4385
-4480
-4569
-4646
-4715
-4768
-4814
-4856
-4896
-4905
-4918
-4921
-4919
-4904
-4879
-4834
-4770
-4688
-4580
-4436
-4272
-4083
-3875
-3648
-3409
-3156
-2902
-2654
-2403
-2149
-1909
-1678
-1458
-1247
-1045
-849
-667
-504
-337
-178
-33
99
221
332
435
529
609
673
743
806
866
921
977
1027
1080
1125
1158
1178
1210
1232
1251
1267
1282
1294
1309
1317
1315
1302
1307
1299
1290
1277
1265
1249
1236
1217
1190
1162
1145
1120
1098
1075
1054
1033
1017
995
964
937
920
897
876
857
839
824
810
791
762
745
732
719
707
700
694
693
694
692
681
684
686
690
693
701
707
720
729
731
724
731
732
733
732
733
732
738
738
729
712
714
705
699
692
690
688
691
691
684
677
682
680
679
679
680
682
688
689
678
672
672
667
660
654
647
642
638
627
605
595
587
576
566
559
552
548
545
538
520
519
514
509
502
501
497
499
497
486
468
463
453
446
435
429
419
417
409
391
366
360
344
330
317
307
298
294
287
271
256
252
241
231
220
212
206
203
196
180
169
165
157
148
140
133
130
127
118
97
88
83
74
66
60
53
51
49
43
25
26
21
17
11
9
4
5
1
-10
-28
-33
-43
-51
-62
-69
-78
-80
-89
-108
-131
-139
-154
-168
-182
-194
-204
-210
-219
-237
-253
-257
-268
-276
-282
-285
-285
-281
-283
-294
-297
-293
-292
-291
-287
-282
-272
-261
-255
-259
-252
-243
-236
-229
-219
-210
-196
-182
-175
-179
-166
-161
-156
-154
-150
-149
-145
-143
-148
-161
-158
-162
-163
-166
-166
-168
-163
-164
-175
-189
-188
-194
-198
-201
-202
-203
-200
-201
-211
-221
-221
-229
-235
-240
-244
-246
-245
-251
-266
-274
-277
-285
-292
-298
-304
-307
-309
-318
-336
-347
-355
-366
-376
-384
-393
-395
-398
-407
-428
-427
-434
-439
-446
-449
-454
-455
-457
-465
-479
-478
-486
-491
-500
-505
-513
-514
-522
-538
-557
-563
-575
-585
-594
-602
-609
-612
-618
-633
-645
-645
-652
-657
-660
-661
-659
-656
-659
-673
-679
-681
-686
-692
-695
-698
-699
-700
-707
-724
-733
-739
-747
-755
-760
-765
-763
-762
-769
-787
-786
-791
-794
-800
-801
-805
-804
-805
-813
-828
-825
-833
-838
-846
-850
-857
-856
-861
-875
-889
-892
-899
-903
-907
-909
-910
-906
-907
-916
-922
-917
-918
-916
-914
-911
-906
-899
-898
-909
-910
-907
-908
-908
-905
-903
-897
-892
-891
-898
-897
-894
-891
-889
-883
-877
-864
-853
-851
-861
-852
-850
-847
-844
-837
-831
-821
-812
-809
-814
-800
-798
-793
-790
-784
-781
-771
-765
-768
-772
-765
-763
-759
-756
-751
-746
-736
-730
-733
-733
-722
-716
-708
-700
-689
-676
-659
-648
-647
-635
-619
-607
-593
-577
-561
-542
-522
-508
-502
-487
-471
-456
-441
-422
-405
-380
-358
-344
-341
-320
-305
-287
-269
-247
-226
-199
-173
-154
-144
-112
-91
-66
-42
-14
13
47
78
101
124
157
184
212
239
269
300
336
367
388
414
450
479
509
539
571
605
641
671
690
721
754
784
813
845
877
911
945
973
992
1021
1049
1076
1101
1129
1154
1186
1213
1232
1240
1264
1282
1300
1316
1335
1352
1373
1390
1398
1397
1415
1422
1431
1437
1447
1455
1467
1474
1473
1471
1480
1481
1485
1488
1492
1497
1505
1508
1499
1494
1497
1494
1492
1490
1489
1491
1493
1488
1472
1465
1459
1449
1437
1426
1414
1403
1395
1381
1359
1350
1341
1332
1321
1314
1305
1303
1297
1284
1263
1257
1247
1237
1225
1217
1206
1201
1191
1173
1147
1142
1127
1116
1106
1101
1094
1092
1086
1072
1058
1055
1045
1037
1028
1021
1016
1013
1005
985
969
961
946
933
920
908
900
892
878
853
840
828
814
800
788
775
766
759
747
726
720
710
701
689
681
670
665
657
641
618
608
594
581
566
555
542
537
528
511
487
484
472
464
456
451
446
445
440
427
414
413
405
398
391
386
381
381
376
361
351
348
340
333
328
323
323
323
317
301
296
294
289
286
285
286
289
294
293
281
284
282
280
276
275
273
276
276
271
258
259
255
251
245
242
238
241
239
228
212
214
208
204
201
200
200
203
201
192
183
187
186
186
187
189
191
196
195
182
175
174
167
159
152
144
137
128
108
75
49
21
-12
-47
-81
-117
-150
-186
-229
-285
-326
-377
-431
-492
-554
-621
-688
-760
-842
-933
-1011
-1096
-1178
-1263
-1347
-1435
-1518
-1611
-1716
-1832
-1940
-2061
-2186
-2317
-2455
-2604
-2759
-2928
-3113
-3303
-3485
-3676
-3866
-4055
-4241
-4421
-4595
-4771
-4949
-5110
-5252
-5383
-5499
-5595
-5672
-5728
-5768
-5798
-5819
-5812
-5782
-5740
-5681
-5608
-5523
-5422
-5309
-5187
-5056
-4880
-4685
-4463
-4220
-3952
-3669
-3371
-3068
-2769
-2476
-2170
-1875
-1581
-1294
-1007
-728
-448
-181
69
309
553
779
997
1204
1403
1593
1776
1943
2090
2224
2355
2464
2561
2644
2716
2777
2827
2859
2867
2871
2870
2854
2828
2797
2758
2717
2670
2613
2544
2481
2419
2354
2290
2229
2167
2112
2058
1999
1930
1886
1836
1792
1750
1715
1681
1655
1630
1601
1566
1550
1528
1510
1492
1480
1467
1462
1451
1432
1410
1400
1384
1368
1352
1339
1325
1316
1302
1279
1258
1248
1231
1214
1197
1181
1168
1159
1145
1120
1105
1095
1082
1068
1057
1045
1037
1029
1016
993
978
965
950
934
920
903
893
878
856
822
808
786
766
745
727
708
695
679
657
628
617
597
580
561
547
530
520
504
480
454
438
417
397
377
358
341
328
311
284
261
249
232
216
202
190
181
177
166
146
136
130
121
112
106
100
97
95
86
70
63
58
51
43
38
31
32
29
19
-1
-4
-12
-20
-27
-32
-38
-39
-42
-52
-70
-68
-76
-80
-86
-87
-91
-91
-95
-108
-121
-124
-132
-138
-145
-148
-151
-149
-153
-166
-175
-174
-180
-184
-186
-186
-183
-178
-178
-188
-188
-186
-188
-190
-189
-190
-189
-186
-189
-200
-202
-203
-206
-211
-213
-218
-215
-215
-223
-240
-239
-244
-247
-251
-252
-254
-250
-249
-255
-269
-262
-266
-266
-270
-269
-271
-268
-269
-279
-289
-290
-298
-303
-308
-312
-314
-313
-317
-332
-342
-343
-349
-353
-356
-357
-354
-348
-347
-358
-358
-355
-355
-355
-353
-351
-345
-338
-336
-343
-340
-338
-338
-340
-340
-343
-338
-337
-343
-358
-358
-363
-368
-374
-376
-379
-375
-375
-382
-396
-389
-391
-390
-390
-387
-385
-380
-380
-387
-394
-391
-394
-395
-398
-399
-400
-399
-404
-420
-433
-437
-446
-455
-461
-466
-467
-465
-470
-485
-489
-489
-492
-493
-492
-491
-487
-482
-482
-491
-489
-490
-491
-494
-493
-493
-487
-484
-488
-500
-499
-502
-505
-509
-511
-515
-511
-511
-519
-534
-530
-536
-541
-547
-550
-553
-553
-555
-565
-574
-570
-573
-574
-575
-576
-575
-571
-573
-586
-593
-592
-596
-598
-599
-600
-597
-593
-595
-609
-611
-611
-613
-614
-614
-612
-609
-604
-605
-617
-614
-616
-617
-619
-616
-615
-607
-602
-605
-615
-611
-611
-610
-610
-607
-606
-597
-593
-597
-608
-600
-603
-604
-604
-603
-601
-596
-595
-601
-606
-599
-599
-597
-595
-592
-588
-579
-576
-584
-585
-581
-581
-582
-582
-582
-580
-579
-585
-605
-614
-622
-632
-642
-651
-658
-662
-666
-675
-694
-696
-702
-706
-710
-708
-708
-701
-697
-699
-707
-702
-701
-698
-696
-690
-685
-672
-663
-663
-668
-657
-652
-646
-639
-629
-619
-605
-595
-593
-590
-576
-568
-559
-550
-539
-527
-511
-500
-500
-494
-481
-474
-467
-457
-448
-435
-420
-412
-412
-401
-387
-375
-361
-343
-325
-303
-280
-262
-255
-230
-210
-187
-166
-140
-116
-87
-59
-37
-21
10
35
63
89
119
147
182
210
229
243
271
292
313
334
357
379
406
427
440
453
476
492
508
523
540
558
579
595
601
613
631
645
660
677
694
716
738
754
761
778
796
812
828
845
861
882
902
914
915
934
946
958
967
979
989
1003
1014
1018
1015
1028
1033
1040
1045
1054
1061
1075
1082
1080
1075
1082
1084
1088
1092
1098
1104
1115
1121
1118
1116
1126
1128
1131
1134
1139
1146
1155
1159
1151
1151
1155
1153
1151
1149
1148
1151
1154
1150
1139
1135
1135
1131
1128
1127
1126
1132
1137
1136
1124
1132
1133
1135
1135
1139
1140
1146
1149
1145
1134
1140
1137
1136
1132
1132
1129
1133
1130
1119
1106
1106
1100
1098
1095
1094
1093
1096
1094
1082
1073
1074
1068
1065
1061
1060
1060
1063
1059
1042
1034
1029
1019
1010
1002
995
991
986
976
958
947
939
928
918
911
902
902
900
891
872
872
866
862
857
856
854
856
857
853
841
849
846
847
844
846
846
852
851
842
831
831
826
821
816
813
810
812
808
795
785
786
780
776
773
771
771
772
768
751
745
741
736
730
726
723
722
723
718
706
702
699
694
687
684
680
683
682
674
655
653
643
634
623
614
603
596
587
571
546
542
527
516
503
495
487
485
479
467
456
455
449
445
441
439
438
441
438
426
417
418
412
407
403
399
398
400
395
380
376
375
371
368
367
367
370
374
373
363
363
361
360
357
358
357
363
366
361
346
347
343
340
336
334
332
336
336
329
313
318
312
309
305
305
305
310
311
305
299
303
300
299
297
297
297
300
298
286
277
276
270
266
263
260
260
262
259
246
245
246
245
244
244
244
246
248
245
231
229
226
223
219
219
216
221
224
219
206
209
207
207
207
210
211
219
223
218
204
210
205
203
199
198
196
198
196
186
175
175
168
162
157
153
151
153
150
137
128
128
122
117
114
113
115
120
118
106
106
109
108
108
109
109
111
113
110
96
95
92
89
83
81
76
78
75
65
47
43
34
27
20
16
11
14
12
1
-17
-16
-25
-30
-35
-38
-41
-40
-44
-55
-67
-68
-77
-84
-91
-96
-99
-97
-99
-110
-116
-113
-114
-114
-112
-109
-102
-93
-90
-97
-93
-88
-85
-81
-76
-71
-63
-54
-49
-55
-45
-40
-34
-30
-22
-17
-7
0
-1
-8
-2
-1
3
3
6
7
16
19
13
1
10
10
14
19
26
33
44
50
46
42
49
48
48
47
48
50
55
53
40
32
30
22
14
6
-1
-4
-6
-15
-34
-43
-49
-59
-68
-75
-80
-82
-81
-84
-98
-92
-93
-92
-95
-94
-95
-92
-91
-97
-110
-110
-115
-117
-122
-122
-125
-119
-118
-125
-137
-132
-133
-132
-130
-125
-121
-113
-109
-113
-117
-108
-107
-104
-101
-96
-90
-81
-78
-87
-88
-83
-82
-80
-76
-72
-64
-55
-53
-62
-62
-60
-61
-62
-61
-61
-57
-52
-53
-65
-57
-56
-53
-52
-45
-40
-29
-20
-16
-20
-8
-4
3
6
13
18
30
36
31
24
30
30
31
31
33
35
40
41
33
27
33
33
34
36
39
42
48
48
36
32
33
30
28
29
29
34
39
37
25
22
21
17
14
14
13
17
20
16
0
3
-2
-6
-11
-12
-15
-11
-10
-15
-26
-22
-25
-25
-28
-25
-24
-15
-12
-17
-25
-19
-20
-19
-19
-17
-15
-10
-10
-18
-25
-21
-24
-25
-25
-24
-21
-14
-12
-21
-20
-13
-9
-4
3
10
21
32
37
32
36
41
44
47
53
57
68
76
76
64
71
71
72
72
76
79
86
91
89
80
88
86
86
85
87
88
95
96
89
81
85
84
84
85
89
92
101
104
99
95
102
102
103
105
107
110
116
115
103
100
102
100
99
99
98
100
102
98
85
80
77
73
69
67
64
69
70
64
46
47
41
37
32
31
29
32
33
27
12
18
11
8
2
1
-3
-1
-5
-17
-30
-32
-39
-45
-50
-53
-55
-51
-53
-63
-70
-67
-70
-71
-72
-72
-70
-65
-67
-79
-81
-81
-84
-88
-89
-90
-88
-84
-85
-93
-92
-88
-85
-83
-77
-74
-62
-55
-56
-68
-63
-63
-62
-62
-59
-58
-51
-48
-53
-66
-58
-61
-61
-62
-59
-57
-50
-48
-55
-64
-64
-69
-73
-77
-79
-80
-77
-79
-92
-101
-102
-110
-117
-125
-130
-133
-132
-137
-154
-159
-161
-164
-168
-168
-169
-166
-161
-161
-169
-166
-163
-162
-163
-162
-164
-159
-158
-163
-177
-173
-175
-174
-173
-168
-164
-152
-144
-142
-149
-134
-129
-120
-113
-102
-92
-79
-70
-69
-69
-57
-52
-44
-37
-27
-16
-2
7
6
9
21
26
32
41
50
62
76
84
80
86
94
98
102
108
114
122
132
137
134
142
147
153
156
163
167
178
185
184
176
181
181
180
177
176
172
174
172
161
143
146
140
136
132
130
127
130
130
122
116
122
121
122
122
124
126
132
130
117
106
102
89
75
59
42
26
10
-16
-53
-81
-107
-138
-169
-200
-234
-268
-304
-348
-406
-455
-514
-578
-650
-722
-799
-870
-945
-1026
-1112
-1184
-1261
-1336
-1414
-1491
-1572
-1649
-1737
-1838
-1953
-2053
-2169
-2287
-2411
-2538
-2671
-2807
-2953
-3110
-3271
-3423
-3581
-3736
-3888
-4034
-4173
-4303
-4434
-4570
-4692
-4799
-4900
-4990
-5068
-5135
-5189
-5233
-5277
-5325
-5357
-5383
-5408
-5426
-5433
-5426
-5398
-5347
-5276
-5190
-5062
-4915
-4743
-4554
-4344
-4120
-3880
-3635
-3395
-3162
-2922
-2694
-2469
-2252
-2036
-1826
-1610
-1403
-1210
-1031
-844
-676
-519
-371
-229
-93
41
166
280
393
515
628
741
850
955
1055
1151
1233
1296
1357
1417
1465
1506
1542
1570
1594
1611
1617
1607
1602
1596
1584
1570
1555
1538
1522
1503
1476
1436
1413
1381
1350
1317
1288
1257
1231
1204
1170
1131
1107
1078
1053
1027
1007
986
975
960
937
912
904
891
881
874
870
869
874
877
872
868
877
879
882
886
890
896
905
908
901
900
906
906
906
907
907
910
913
909
896
892
892
891
891
893
895
902
908
906
893
899
898
900
900
903
905
910
912
906
892
891
882
875
866
860
852
850
842
825
805
797
784
773
762
754
748
748
743
730
719
719
713
709
706
706
707
712
708
694
687
683
675
664
655
644
636
629
616
594
580
570
558
547
538
530
527
523
513
492
492
485
479
473
471
467
467
465
456
439
439
430
425
417
413
407
407
401
386
368
362
352
343
335
330
325
326
323
310
299
298
291
286
283
281
283
287
286
274
270
271
267
262
259
254
252
250
242
226
218
211
203
194
188
180
180
178
169
149
149
143
139
133
131
128
129
127
119
103
106
97
92
84
79
72
72
66
51
33
27
14
4
-7
-17
-25
-30
-40
-61
-79
-88
-103
-116
-127
-137
-143
-146
-156
-177
-188
-195
-205
-216
-225
-233
-239
-244
-255
-275
-286
-297
-310
-324
-336
-350
-356
-366
-383
-410
-418
-434
-449
-464
-477
-492
-501
-513
-531
-558
-563
-579
-591
-606
-617
-628
-634
-644
-662
-680
-687
-698
-706
-714
-719
-724
-724
-731
-748
-761
-765
-774
-781
-787
-792
-795
-794
-799
-815
-820
-822
-825
-828
-826
-824
-818
-810
-807
-812
-807
-801
-796
-792
-785
-779
-764
-753
-750
-757
-748
-746
-743
-742
-739
-738
-732
-730
-735
-749
-742
-747
-749
-753
-752
-753
-748
-747
-754
-760
-755
-755
-753
-751
-747
-743
-734
-732
-740
-743
-737
-737
-736
-735
-733
-728
-721
-722
-735
-736
-737
-739
-740
-739
-737
-733
-727
-726
-735
-733
-732
-730
-730
-725
-722
-710
-702
-702
-711
-704
-703
-700
-699
-694
-690
-680
-674
-676
-687
-676
-677
-675
-674
-671
-668
-661
-657
-660
-661
-651
-647
-640
-634
-626
-616
-602
-593
-594
-591
-579
-573
-566
-558
-548
-534
-518
-508
-508
-496
-482
-470
-458
-442
-427
-409
-392
-380
-379
-366
-356
-346
-340
-330
-323
-309
-299
-297
-303
-295
-292
-287
-283
-276
-269
-254
-244
-242
-247
-232
-226
-218
-209
-198
-187
-172
-162
-159
-157
-144
-139
-134
-129
-124
-118
-108
-103
-108
-107
-97
-92
-86
-79
-71
-59
-46
-38
-39
-28
-15
-4
9
23
37
54
72
85
87
106
120
136
151
170
187
210
230
243
248
268
283
300
316
336
354
381
403
418
425
453
471
492
512
536
559
587
610
625
639
665
683
704
724
745
768
796
817
827
842
865
883
901
921
941
965
988
1005
1010
1026
1043
1056
1069
1082
1094
1110
1125
1134
1132
1146
1154
1162
1167
1176
1181
1190
1195
1192
1181
1182
1176
1172
1164
1159
1151
1149
1140
1120
1094
1084
1065
1047
1030
1016
1002
992
979
956
935
925
908
894
879
867
857
852
840
819
805
797
784
772
761
750
744
739
727
705
694
686
674
663
654
646
641
638
630
611
612
607
604
600
600
600
605
608
604
594
599
597
598
595
596
595
600
599
589
574
575
568
564
559
557
556
560
559
549
541
544
540
539
539
541
545
553
555
546
544
548
547
546
547
547
551
556
553
541
537
534
530
525
523
520
523
526
522
508
514
513
513
510
511
509
513
515
512
501
507
505
505
503
505
504
509
509
498
485
485
480
476
472
470
470
473
471
459
450
452
447
445
444
445
447
453
452
440
435
435
431
427
425
422
424
427
423
411
408
408
405
403
404
406
414
420
419
406
414
413
414
412
414
415
419
423
419
409
415
412
412
409
410
409
413
412
402
391
391
385
380
376
374
373
377
377
369
363
369
368
370
372
376
380
387
387
376
373
374
371
369
370
370
375
379
378
368
366
365
364
360
359
357
360
361
352
331
329
320
312
304
298
291
288
283
271
250
247
234
223
210
201
192
188
180
164
149
144
135
127
119
114
109
109
103
89
77
76
69
63
58
54
53
55
50
34
28
24
16
6
-5
-19
-32
-48
-71
-107
-137
-170
-206
-247
-286
-329
-368
-412
-468
-538
-593
-660
-729
-804
-879
-960
-1037
-1119
-1208
-1306
-1384
-1475
-1565
-1661
-1758
-1861
-1964
-2076
-2203
-2338
-2470
-2616
-2769
-2930
-3095
-3264
-3431
-3603
-3782
-3957
-4120
-4285
-4444
-4596
-4737
-4864
-4977
-5081
-5181
-5256
-5313
-5358
-5389
-5404
-5404
-5388
-5358
-5321
-5282
-5223
-5155
-5077
-4993
-4895
-4788
-4660
-4518
-4364
-4198
-3997
-3785
-3559
-3324
-3079
-2832
-2577
-2324
-2080
-1845
-1592
-1352
-1110
-875
-640
-410
-181
39
244
440
638
821
995
1157
1308
1446
1576
1686
1773
1852
1927
1982
2025
2056
2077
2088
2091
2078
2044
2014
1978
1933
1884
1832
1778
1723
1668
1606
1534
1475
1415
1358
1299
1246
1193
1149
1105
1058
1005
969
931
898
867
841
815
798
777
749
714
701
679
663
647
637
627
623
616
602
588
586
577
571
566
564
565
572
573
564
561
567
567
569
571
573
578
585
585
573
573
573
571
568
567
566
568
571
569
558
561
562
563
562
565
566
574
578
575
564
569
568
568
567
569
569
577
579
571
556
559
553
550
547
547
545
547
545
535
524
525
518
513
508
506
505
509
506
493
485
484
477
471
467
463
464
466
461
446
442
439
434
429
425
422
421
422
418
404
405
400
397
391
390
386
389
389
382
369
370
367
366
363
363
361
367
369
362
349
355
352
350
348
346
343
342
336
321
305
301
289
280
271
263
258
256
248
231
219
215
206
198
192
187
186
185
178
159
150
143
132
122
114
106
101
97
89
68
66
56
48
39
33
25
23
19
8
-10
-14
-24
-32
-42
-48
-56
-55
-58
-71
-88
-88
-96
-103
-108
-112
-115
-114
-118
-129
-139
-138
-144
-148
-152
-154
-156
-155
-160
-174
-182
-182
-186
-189
-190
-190
-186
-181
-182
-193
-194
-193
-193
-193
-191
-188
-180
-172
-171
-182
-174
-173
-170
-169
-163
-159
-150
-144
-145
-153
-147
-149
-149
-151
-150
-150
-142
-139
-145
-154
-150
-153
-156
-161
-164
-167
-166
-169
-180
-190
-189
-195
-199
-202
-205
-206
-204
-209
-225
-233
-236
-245
-255
-263
-273
-281
-290
-306
-332
-349
-365
-383
-401
-418
-436
-450
-467
-492
-529
-547
-573
-597
-623
-646
-669
-688
-708
-735
-769
-787
-814
-838
-864
-884
-905
-919
-937
-963
-990
-1005
-1025
-1044
-1063
-1080
-1095
-1106
-1122
-1146
-1168
-1180
-1199
-1215
-1232
-1247
-1260
-1269
-1285
-1310
-1326
-1335
-1348
-1359
-1367
-1377
-1382
-1386
-1395
-1412
-1421
-1427
-1434
-1441
-1445
-1449
-1448
-1448
-1457
-1477
-1477
-1483
-1487
-1491
-1491
-1492
-1488
-1485
-1487
-1498
-1490
-1492
-1490
-1490
-1485
-1481
-1470
-1466
-1470
-1476
-1472
-1472
-1472
-1471
-1468
-1463
-1455
-1450
-1456
-1458
-1451
-1449
-1447
-1442
-1435
-1425
-1412
-1405
-1409
-1403
-1393
-1387
-1381
-1373
-1366
-1354
-1342
-1334
-1334
-1325
-1313
-1302
-1291
-1276
-1263
-1243
-1226
-1217
-1219
-1202
-1190
-1177
-1165
-1150
-1137
-1118
-1102
-1091
-1090
-1067
-1054
-1037
-1022
-1002
-983
-959
-939
-928
-917
-894
-876
-854
-832
-806
-781
-751
-727
-712
-693
-665
-642
-618
-593
-566
-535
-502
-473
-456
-429
-398
-369
-340
-307
-275
-238
-200
-166
-140
-105
-68
-32
4
42
79
124
167
203
229
274
313
354
394
437
477
523
566
601
628
676
713
753
791
833
873
918
958
989
1019
1059
1093
1128
1162
1197
1232
1270
1300
1319
1340
1369
1391
1414
1437
1462
1488
1516
1538
1546
1565
1586
1602
1618
1636
1653
1672
1691
1706
1711
1727
1740
1753
1762
1775
1787
1805
1821
1828
1825
1838
1845
1851
1857
1864
1870
1882
1890
1890
1881
1894
1896
1900
1903
1908
1912
1919
1922
1918
1914
1919
1917
1917
1915
1916
1916
1920
1917
1903
1893
1892
1884
1878
1873
1869
1870
1872
1868
1854
1851
1850
1845
1842
1841
1840
1842
1845
1843
1833
1834
1832
1831
1827
1827
1825
1830
1831
1825
1810
1809
1802
1796
1789
1786
1783
1787
1788
1782
1769
1776
1773
1773
1772
1775
1777
1782
1784
1778
1772
1776
1773
1771
1768
1764
1758
1755
1745
1723
1705
1694
1678
1661
1646
1630
1617
1605
1586
1556
1538
1522
1503
1485
1467
1449
1433
1417
1395
1361
1340
1314
1289
1261
1239
1214
1197
1176
1149
1114
1093
1066
1041
1013
990
966
949
927
897
859
841
814
790
766
745
724
709
692
667
645
635
619
605
591
579
569
564
553
533
519
513
503
493
485
478
473
470
459
438
428
421
411
401
394
386
381
377
367
346
341
330
321
310
304
295
292
286
274
255
250
240
232
221
215
208
210
206
193
175
173
163
156
149
147
145
149
150
143
138
143
143
144
145
147
150
157
158
148
145
148
147
146
147
147
152
156
155
144
144
148
150
153
158
162
170
178
180
170
179
183
188
191
199
204
213
220
220
212
219
219
221
220
224
226
235
238
232
221
225
222
220
218
219
220
225
226
218
210
213
209
206
204
204
207
215
218
210
210
216
218
220
222
224
230
235
234
223
221
221
220
219
219
218
221
224
219
202
207
203
202
200
201
199
203
205
200
187
189
184
181
175
175
172
175
172
159
143
140
131
123
115
110
104
103
97
81
66
62
52
44
37
33
32
35
34
22
18
19
17
16
17
17
22
28
27
19
18
20
20
20
22
23
29
34
33
20
28
29
32
34
39
42
49
54
54
46
55
56
60
60
65
68
76
78
71
62
66
65
66
67
72
78
88
93
89
86
94
96
100
105
112
122
134
141
137
142
150
154
158
165
171
182
194
200
199
206
216
226
235
248
259
278
294
304
302
319
329
339
347
357
365
376
385
387
379
388
386
387
383
382
379
381
377
365
351
348
340
334
328
324
320
320
315
299
285
281
269
259
249
241
234
229
219
196
184
174
162
148
137
124
115
106
90
66
50
35
18
0
-15
-30
-38
-48
-67
-97
-108
-126
-142
-160
-175
-189
-198
-207
-222
-245
-247
-259
-267
-278
-283
-290
-291
-297
-310
-323
-325
-334
-340
-347
-353
-358
-359
-365
-380
-391
-390
-394
-396
-396
-394
-389
-382
-381
-391
-390
-387
-386
-384
-379
-375
-367
-358
-354
-358
-353
-348
-344
-343
-338
-335
-325
-319
-321
-334
-330
-331
-330
-329
-325
-322
-313
-306
-305
-312
-298
-294
-286
-280
-270
-261
-246
-235
-231
-228
-215
-209
-201
-194
-185
-176
-163
-157
-162
-163
-154
-151
-147
-142
-135
-124
-111
-102
-103
-93
-80
-69
-57
-44
-31
-16
-1
8
8
17
25
33
39
49
57
73
84
87
80
88
92
97
101
109
116
129
139
141
135
149
152
158
163
171
179
191
199
201
202
214
219
225
230
237
244
256
262
257
257
264
265
265
264
265
269
274
271
258
257
259
258
258
260
262
266
271
271
261
264
264
264
262
264
263
269
271
266
254
257
255
255
253
255
255
263
265
260
246
252
247
244
241
240
238
241
241
232
224
225
220
217
214
214
216
222
223
214
210
214
212
211
211
211
215
220
220
208
208
208
205
202
200
197
197
197
193
178
179
176
174
170
171
168
172
172
166
152
153
150
150
148
151
152
160
163
156
142
146
141
138
133
130
127
127
123
111
100
99
91
86
80
76
75
77
75
63
58
61
59
58
59
61
69
78
81
74
77
84
87
92
99
106
117
129
136
132
146
154
163
169
181
190
205
217
224
224
238
247
258
267
278
288
305
316
318
315
329
334
341
347
355
362
371
374
369
362
365
360
356
350
346
341
338
326
302
282
267
246
225
205
186
170
155
133
101
79
60
37
15
-5
-27
-44
-62
-86
-122
-140
-165
-188
-213
-233
-255
-272
-289
-312
-340
-352
-368
-380
-395
-404
-416
-420
-428
-444
-463
-466
-475
-483
-489
-493
-497
-496
-499
-510
-520
-516
-519
-520
-519
-517
-513
-505
-504
-514
-516
-514
-515
-515
-513
-511
-504
-497
-496
-506
-506
-503
-502
-501
-496
-492
-482
-472
-469
-478
-468
-465
-461
-459
-454
-450
-441
-435
-435
-443
-434
-434
-430
-430
-425
-423
-412
-406
-408
-410
-399
-394
-387
-379
-368
-355
-338
-324
-319
-312
-293
-280
-266
-251
-235
-219
-200
-188
-187
-178
-165
-157
-151
-145
-141
-135
-132
-137
-154
-164
-174
-187
-202
-215
-232
-247
-268
-299
-346
-378
-423
-472
-527
-585
-647
-708
-772
-842
-920
-980
-1050
-1116
-1187
-1252
-1323
-1389
-1467
-1557
-1656
-1749
-1855
-1966
-2083
-2204
-2330
-2458
-2597
-2750
-2906
-3055
-3213
-3370
-3525
-3675
-3817
-3950
-4083
-4221
-4342
-4450
-4552
-4646
-4728
-4801
-4861
-4911
-4959
-5007
-5040
-5066
-5089
-5109
-5120
-5122
-5104
-5071
-5023
-4961
-4852
-4723
-4567
-4389
-4188
-3970
-3733
-3488
-3241
-3000
-2741
-2498
-2257
-2023
-1789
-1561
-1330
-1108
-899
-698
-495
-309
-134
30
185
331
474
605
720
833
952
1061
1167
1271
1371
1467
1558
1634
1692
1752
1808
1853
1892
1927
1956
1982
2003
2013
2011
2013
2013
2009
1999
1989
1973
1962
1943
1914
1872
1845
1811
1777
1742
1709
1675
1647
1614
1575
1527
1501
1466
1436
1405
1380
1355
1337
1316
1288
1262
1248
1230
1216
1205
1197
1193
1194
1192
1181
1176
1181
1180
1181
1183
1186
1191
1198
1199
1188
1187
1188
1186
1182
1180
1177
1176
1177
1174
1163
1164
1165
1167
1168
1173
1176
1188
1195
1196
1187
1196
1199
1203
1206
1210
1213
1221
1224
1218
1203
1208
1203
1200
1196
1196
1194
1195
1193
1182
1171
1171
1165
1160
1155
1151
1147
1145
1135
1113
1094
1082
1062
1043
1023
1002
985
968
944
908
883
859
831
805
780
754
731
709
682
645
620
593
566
537
512
485
466
445
418
383
365
342
322
303
287
271
262
249
229
201
194
176
161
145
130
115
104
89
66
43
31
14
-1
-17
-31
-45
-54
-70
-94
-114
-124
-139
-153
-165
-176
-184
-190
-202
-225
-237
-245
-257
-269
-278
-286
-292
-296
-305
-324
-329
-338
-346
-357
-364
-371
-372
-375
-385
-402
-404
-413
-420
-430
-436
-444
-443
-448
-461
-480
-479
-487
-492
-497
-498
-500
-499
-502
-512
-522
-520
-524
-527
-531
-532
-533
-530
-534
-549
-558
-558
-563
-567
-568
-570
-567
-564
-566
-579
-581
-582
-584
-585
-583
-579
-572
-563
-560
-567
-559
-556
-552
-550
-543
-537
-525
-515
-512
-516
-507
-505
-501
-501
-498
-498
-489
-486
-491
-503
-498
-502
-504
-507
-508
-509
-506
-506
-513
-519
-512
-511
-508
-506
-502
-497
-488
-486
-494
-495
-490
-490
-488
-486
-485
-481
-479
-483
-499
-504
-508
-515
-520
-523
-526
-525
-524
-528
-544
-540
-543
-543
-543
-539
-534
-523
-514
-511
-514
-503
-498
-491
-487
-480
-475
-462
-455
-458
-468
-461
-464
-464
-465
-463
-462
-455
-453
-458
-462
-453
-452
-449
-446
-443
-437
-428
-425
-433
-434
-428
-428
-427
-425
-423
-417
-411
-413
-425
-428
-427
-429
-430
-430
-429
-424
-420
-421
-433
-426
-425
-423
-421
-415
-410
-401
-394
-392
-398
-388
-385
-379
-376
-368
-363
-350
-343
-345
-351
-344
-344
-344
-344
-341
-338
-330
-326
-330
-333
-324
-322
-317
-311
-303
-292
-278
-269
-268
-260
-245
-235
-224
-211
-199
-183
-166
-156
-154
-144
-132
-121
-111
-99
-88
-71
-56
-47
-51
-34
-24
-13
-2
14
28
47
64
73
75
94
104
117
127
142
154
172
184
187
186
196
199
203
206
210
214
222
223
214
206
208
202
197
192
189
189
194
193
182
180
183
181
180
181
181
186
191
191
182
181
183
184
184
186
187
196
202
202
190
199
201
203
205
211
216
226
233
235
229
241
244
250
252
259
264
274
278
274
269
276
277
281
284
289
293
302
307
302
299
308
311
316
322
332
346
364
376
377
389
404
415
425
436
447
461
475
483
482
488
495
500
503
509
514
525
534
536
528
538
543
549
554
562
569
582
592
596
591
607
612
619
624
633
639
650
654
649
643
648
646
647
648
649
650
654
652
640
630
630
623
619
616
614
616
620
619
606
603
603
602
600
602
603
608
615
616
607
608
609
609
608
610
610
618
623
620
608
614
614
615
616
620
623
632
638
638
630
643
644
649
650
653
655
661
662
655
648
651
648
648
647
648
650
656
656
647
641
645
644
645
648
652
659
669
671
663
665
671
675
678
684
690
697
705
706
697
696
694
690
682
678
670
669
664
652
630
624
612
601
590
582
574
572
567
555
534
534
522
513
503
495
486
482
474
460
447
444
436
430
423
419
415
416
411
397
388
390
386
384
383
383
385
389
386
372
369
369
366
364
364
364
367
372
372
364
367
369
372
374
381
385
397
405
405
395
399
398
397
396
397
398
406
410
407
396
406
406
410
414
421
428
439
448
449
450
462
468
475
481
488
495
506
511
505
505
512
514
517
520
524
532
541
544
537
541
548
553
559
566
572
582
593
598
594
604
611
619
625
636
643
657
667
668
661
665
664
663
659
659
656
660
656
643
621
618
604
593
580
569
558
550
537
516
494
481
459
437
411
385
356
329
293
244
199
158
109
57
5
-51
-107
-165
-232
-315
-391
-470
-557
-650
-746
-846
-946
-1048
-1157
-1279
-1386
-1500
-1617
-1740
-1864
-1996
-2128
-2270
-2424
-2591
-2753
-2927
-3106
-3295
-3484
-3678
-3864
-4055
-4254
-4456
-4636
-4819
-4992
-5154
-5303
-5440
-5559
-5670
-5774
-5863
-5925
-5979
-6016
-6036
-6037
-6019
-5982
-5936
-5887
-5820
-5735
-5643
-5539
-5418
-5278
-5114
-4927
-4726
-4515
-4278
-4026
-3769
-3507
-3241
-2973
-2700
-2427
-2161
-1909
-1641
-1386
-1136
-895
-657
-430
-205
11
213
401
593
769
935
1085
1226
1352
1472
1573
1653
1716
1783
1830
1866
1892
1908
1915
1916
1905
1877
1844
1816
1777
1736
1691
1647
1604
1562
1513
1454
1403
1358
1311
1267
1228
1192
1163
1139
1110
1075
1051
1031
1011
993
978
964
957
952
941
920
919
912
908
902
902
901
905
909
906
897
905
904
907
905
906
904
909
907
896
882
882
875
871
867
865
864
866
863
849
837
837
829
824
819
817
816
818
813
797
789
786
779
772
767
762
761
759
752
735
726
719
709
699
692
684
683
681
673
652
651
641
633
624
618
612
611
609
600
584
585
576
571
562
558
551
550
544
529
511
505
493
481
470
461
452
448
439
422
407
405
398
392
388
386
386
388
384
370
364
363
359
354
352
349
349
350
344
330
324
319
313
308
306
304
308
311
306
291
296
293
292
290
292
292
298
302
300
291
300
299
301
300
304
306
314
316
310
303
307
305
304
303
303
304
309
310
301
295
298
296
294
293
293
294
298
295
281
278
278
274
271
269
265
264
262
254
237
227
218
206
192
180
166
158
146
124
91
75
52
31
8
-12
-32
-46
-63
-86
-117
-129
-150
-168
-187
-200
-214
-222
-234
-252
-270
-277
-288
-297
-306
-313
-318
-318
-323
-337
-347
-348
-354
-359
-364
-369
-371
-373
-382
-402
-412
-419
-430
-440
-448
-456
-461
-466
-476
-494
-502
-509
-516
-525
-530
-538
-539
-544
-557
-580
-587
-600
-612
-624
-633
-644
-648
-656
-672
-696
-699
-714
-725
-737
-745
-754
-757
-762
-776
-789
-791
-799
-805
-811
-815
-817
-815
-820
-834
-844
-847
-855
-862
-870
-877
-882
-885
-894
-914
-922
-928
-937
-945
-951
-957
-961
-964
-972
-988
-992
-996
-1000
-1007
-1009
-1014
-1011
-1012
-1021
-1037
-1038
-1043
-1046
-1049
-1049
-1050
-1045
-1044
-1052
-1068
-1062
-1067
-1069
-1071
-1070
-1069
-1064
-1062
-1068
-1075
-1071
-1073
-1072
-1072
-1067
-1061
-1050
-1044
-1047
-1045
-1035
-1030
-1024
-1016
-1006
-991
-973
-961
-959
-946
-931
-920
-908
-894
-881
-866
-850
-839
-840
-828
-822
-816
-815
-811
-811
-804
-802
-808
-821
-820
-823
-826
-829
-829
-832
-826
-826
-834
-848
-843
-847
-849
-850
-848
-846
-840
-837
-843
-849
-843
-844
-843
-842
-838
-832
-822
-818
-825
-826
-820
-819
-818
-815
-811
-801
-790
-783
-787
-780
-771
-763
-755
-744
-732
-716
-699
-686
-684
-666
-651
-636
-622
-604
-588
-565
-544
-530
-521
-499
-481
-462
-444
-424
-404
-376
-354
-341
-333
-305
-286
-263
-240
-215
-189
-159
-132
-111
-89
-54
-25
6
38
71
107
146
179
202
230
266
297
330
364
398
437
477
511
534
568
604
638
672
710
749
792
836
875
903
949
988
1030
1070
1114
1155
1202
1246
1283
1312
1355
1390
1427
1460
1495
1527
1567
1599
1622
1638
1669
1692
1715
1737
1760
1781
1806
1825
1837
1849
1874
1892
1911
1931
1952
1974
1998
2014
2017
2026
2038
2044
2049
2054
2056
2059
2059
2050
2029
2015
2002
1986
1969
1954
1939
1927
1916
1900
1872
1864
1848
1835
1821
1811
1801
1796
1789
1777
1758
1754
1744
1735
1724
1718
1710
1711
1706
1692
1675
1672
1662
1652
1641
1631
1621
1614
1601
1579
1559
1549
1532
1517
1501
1487
1475
1466
1451
1426
1408
1396
1381
1366
1354
1340
1331
1320
1303
1275
1256
1240
1220
1201
1183
1163
1148
1131
1106
1069
1052
1027
1003
978
957
935
918
900
876
844
829
806
785
762
744
725
713
695
668
638
621
597
575
553
533
514
501
483
457
433
422
404
388
374
362
351
344
332
310
298
291
281
271
264
257
254
253
245
229
222
219
215
211
210
208
213
216
211
195
199
195
193
190
191
191
195
197
190
176
179
173
171
166
166
165
171
172
165
156
160
158
158
159
163
167
177
182
178
177
186
187
191
194
198
205
215
218
211
213
218
219
218
220
221
227
233
234
227
229
234
237
241
247
253
264
273
275
266
277
280
285
289
296
301
311
317
316
307
317
317
321
323
329
333
343
348
343
337
341
338
338
337
339
341
348
350
342
338
344
344
345
346
349
355
363
366
358
360
364
364
364
367
368
373
379
380
372
373
374
374
373
375
375
382
385
381
366
369
367
365
364
366
366
373
377
374
365
377
378
383
386
392
398
408
414
411
408
415
417
420
422
426
431
439
441
433
428
432
431
433
437
444
455
469
478
475
483
494
502
510
520
530
543
557
566
566
574
583
590
594
602
607
620
629
630
622
631
635
639
642
647
651
661
667
666
657
668
667
669
669
673
674
678
678
668
657
656
647
640
630
620
609
600
584
556
531
513
488
464
442
421
403
387
365
332
311
291
270
250
234
218
205
195
181
159
149
138
128
117
111
103
103
100
89
70
65
56
46
36
27
17
13
5
-12
-36
-39
-52
-62
-74
-83
-91
-96
-103
-116
-128
-129
-136
-141
-146
-150
-153
-153
-158
-174
-185
-188
-195
-201
-206
-210
-211
-210
-216
-234
-240
-244
-251
-257
-261
-265
-265
-263
-266
-280
-280
-284
-287
-291
-290
-291
-285
-281
-286
-298
-296
-299
-302
-306
-308
-310
-304
-304
-311
-327
-321
-326
-327
-329
-327
-325
-319
-317
-322
-328
-322
-325
-326
-327
-327
-326
-321
-320
-330
-333
-328
-327
-325
-321
-316
-308
-298
-294
-301
-297
-290
-286
-280
-273
-265
-255
-244
-239
-245
-234
-229
-222
-216
-207
-200
-186
-176
-172
-177
-168
-164
-159
-156
-149
-143
-130
-123
-125
-134
-124
-124
-121
-119
-115
-111
-102
-97
-100
-103
-95
-95
-94
-93
-90
-86
-77
-73
-80
-81
-74
-72
-70
-66
-62
-54
-47
-46
-54
-51
-46
-44
-42
-38
-34
-28
-22
-22
-34
-28
-28
-27
-28
-25
-23
-16
-13
-17
-28
-26
-29
-30
-33
-32
-32
-24
-22
-30
-43
-40
-45
-47
-49
-48
-46
-39
-36
-41
-45
-36
-34
-30
-26
-20
-12
0
5
0
2
8
9
10
13
16
23
31
33
25
26
31
34
37
42
47
57
67
71
64
77
83
92
99
111
120
133
143
146
141
152
154
158
159
164
167
177
181
176
167
173
172
174
176
181
188
199
206
205
204
216
220
226
233
243
256
273
283
284
291
303
310
317
326
333
344
356
360
355
359
365
368
370
374
377
384
391
391
378
386
386
388
389
393
394
400
405
403
393
400
398
398
396
398
397
402
399
386
370
365
353
342
330
319
308
300
287
264
242
232
215
201
187
176
167
162
151
130
117
109
97
86
78
70
67
64
55
38
28
20
11
2
-5
-13
-14
-17
-26
-47
-49
-58
-66
-76
-82
-90
-92
-95
-105
-121
-119
-127
-131
-140
-144
-150
-150
-154
-167
-180
-181
-188
-194
-199
-203
-206
-204
-209
-225
-238
-241
-250
-258
-263
-267
-268
-266
-271
-286
-292
-294
-298
-302
-302
-301
-297
-293
-295
-305
-308
-309
-312
-316
-316
-317
-311
-308
-313
-329
-327
-331
-334
-338
-338
-339
-335
-332
-336
-348
-340
-343
-342
-344
-342
-341
-334
-332
-338
-343
-339
-340
-340
-340
-340
-339
-333
-334
-344
-353
-352
-359
-366
-373
-379
-385
-391
-405
-430
-445
-458
-476
-496
-517
-542
-566
-594
-632
-684
-734
-789
-850
-915
-979
-1044
-1102
-1163
-1231
-1309
-1370
-1438
-1507
-1580
-1655
-1737
-1818
-1908
-2012
-2131
-2235
-2355
-2479
-2611
-2747
-2890
-3033
-3184
-3346
-3510
-3663
-3820
-3971
-4117
-4256
-4388
-4511
-4631
-4754
-4865
-4957
-5045
-5122
-5190
-5247
-5293
-5328
-5363
-5404
-5427
-5438
-5441
-5428
-5393
-5335
-5247
-5131
-4994
-4840
-4654
-4450
-4230
-3998
-3751
-3498
-3235
-2975
-2728
-2495
-2252
-2019
-1790
-1563
-1337
-1117
-897
-689
-500
-332
-154
1
149
284
414
536
655
765
863
957
1060
1153
1241
1323
1400
1471
1538
1592
1630
1667
1709
1740
1767
1790
1809
1826
1840
1845
1837
1837
1837
1832
1825
1817
1807
1797
1786
1768
1738
1720
1698
1676
1650
1627
1602
1584
1561
1531
1493
1469
1441
1414
1388
1365
1342
1328
1311
1288
1259
1252
1237
1227
1217
1214
1211
1214
1214
1206
1199
1203
1200
1199
1198
1198
1198
1201
1198
1184
1174
1172
1163
1152
1142
1132
1125
1119
1106
1083
1071
1060
1046
1032
1018
1004
993
982
966
939
927
912
898
881
869
854
845
832
812
783
769
751
734
715
700
683
674
659
636
605
596
578
565
553
545
539
537
533
522
512
513
507
504
501
500
502
507
504
491
481
477
467
456
446
436
429
423
411
388
376
366
353
342
333
326
322
320
314
297
298
294
291
286
286
283
286
287
281
268
269
264
260
254
251
245
245
240
224
203
198
186
176
165
157
149
145
138
124
111
110
102
98
94
93
94
98
96
83
75
72
64
57
51
46
45
44
37
19
11
5
-6
-16
-25
-35
-40
-44
-53
-74
-75
-83
-89
-97
-100
-105
-104
-105
-112
-126
-125
-130
-133
-139
-141
-147
-145
-149
-162
-180
-183
-193
-201
-210
-216
-222
-225
-231
-245
-257
-256
-260
-261
-260
-256
-251
-242
-238
-245
-244
-237
-233
-229
-223
-217
-206
-196
-193
-200
-199
-195
-193
-192
-188
-186
-178
-172
-172
-186
-180
-183
-184
-188
-187
-189
-186
-184
-189
-200
-196
-200
-201
-206
-207
-210
-206
-208
-218
-230
-229
-233
-235
-237
-237
-236
-231
-231
-239
-245
-239
-238
-236
-234
-230
-226
-219
-220
-231
-235
-234
-238
-241
-242
-243
-240
-237
-240
-251
-254
-254
-256
-258
-258
-258
-253
-249
-252
-266
-261
-264
-265
-268
-267
-268
-263
-262
-267
-281
-278
-285
-290
-299
-303
-309
-308
-313
-325
-339
-340
-346
-351
-356
-359
-361
-360
-363
-375
-386
-386
-392
-397
-402
-406
-408
-409
-416
-433
-441
-444
-451
-458
-461
-465
-465
-464
-471
-486
-493
-497
-503
-508
-511
-514
-511
-511
-518
-537
-538
-547
-555
-564
-571
-578
-581
-586
-599
-621
-625
-639
-649
-662
-669
-678
-681
-687
-701
-716
-719
-727
-733
-738
-741
-742
-738
-738
-748
-753
-748
-749
-748
-744
-740
-732
-723
-718
-725
-720
-712
-708
-704
-698
-692
-683
-673
-670
-675
-672
-667
-664
-661
-655
-650
-637
-627
-624
-632
-621
-616
-609
-601
-589
-577
-560
-545
-538
-539
-520
-513
-503
-495
-481
-470
-453
-441
-438
-435
-423
-416
-409
-402
-394
-384
-371
-362
-363
-360
-348
-342
-334
-325
-315
-301
-284
-272
-270
-256
-239
-225
-210
-193
-176
-157
-136
-120
-112
-94
-75
-56
-37
-15
6
33
57
73
79
103
121
140
159
181
202
229
252
268
275
304
321
343
363
387
409
436
458
471
483
504
520
537
553
570
587
608
622
625
631
646
653
661
671
682
695
712
722
720
729
741
750
759
770
781
794
809
818
820
833
845
857
867
881
894
913
928
935
932
944
950
957
962
969
973
984
991
989
978
988
986
988
989
993
996
1003
1007
1002
996
1002
1001
1003
1005
1009
1014
1022
1023
1014
1008
1010
1005
1002
1000
999
1003
1008
1007
995
994
994
991
988
987
985
986
988
984
971
971
968
965
959
956
952
955
955
949
935
937
934
931
927
926
922
927
926
917
902
907
902
900
897
898
897
900
900
891
882
885
881
878
876
875
874
877
874
860
852
851
846
842
839
837
840
843
840
827
824
823
819
816
816
815
816
818
814
800
801
796
792
786
784
781
784
785
778
765
766
761
758
753
751
748
751
749
738
721
721
711
703
693
685
676
669
658
637
616
604
585
567
547
530
513
500
481
451
428
412
393
376
362
348
339
331
318
295
283
274
264
255
249
245
244
243
237
220
221
216
213
207
206
202
205
205
199
185
185
178
172
164
159
152
154
149
135
116
114
104
96
88
82
77
75
71
58
48
50
45
42
40
39
40
43
40
26
20
20
16
14
13
12
15
17
13
-2
-6
-7
-10
-12
-10
-9
-2
4
5
-7
1
1
3
3
7
10
17
21
19
8
11
7
4
-1
-2
-4
2
2
-7
-19
-17
-21
-23
-25
-24
-22
-16
-15
-21
-26
-19
-20
-20
-20
-19
-17
-11
-11
-21
-22
-17
-17
-17
-15
-15
-11
-7
-10
-22
-24
-22
-23
-24
-24
-23
-18
-13
-16
-29
-22
-21
-18
-16
-9
-3
7
16
18
13
24
26
32
35
42
47
59
64
60
53
58
57
57
57
59
62
69
71
65
61
69
70
73
77
83
91
102
106
100
102
109
111
112
116
119
125
131
131
123
123
126
126
126
127
126
131
132
126
107
108
101
97
91
89
86
87
86
78
64
68
64
65
63
66
67
76
79
74
68
75
75
78
80
85
90
99
102
95
90
95
93
92
92
94
99
108
111
103
105
110
113
115
119
124
132
140
143
137
139
143
145
146
149
151
159
166
165
153
161
162
165
168
173
178
188
196
197
190
203
206
211
214
220
224
232
235
230
224
229
229
232
234
238
242
251
255
250
246
253
252
252
252
252
254
259
258
246
245
248
247
247
248
247
249
252
247
232
225
217
207
195
186
175
172
167
154
133
131
123
116
109
105
100
99
96
86
66
67
57
50
40
33
24
20
10
-9
-27
-35
-47
-57
-66
-72
-75
-73
-75
-87
-94
-92
-95
-95
-94
-92
-86
-79
-79
-93
-96
-97
-101
-106
-107
-109
-107
-104
-107
-118
-119
-120
-122
-126
-125
-125
-118
-114
-118
-132
-129
-131
-131
-133
-131
-129
-121
-116
-117
-127
-115
-114
-109
-107
-101
-96
-89
-85
-89
-94
-88
-88
-86
-86
-84
-82
-75
-74
-83
-88
-84
-86
-85
-83
-80
-73
-65
-63
-74
-72
-69
-69
-68
-65
-62
-58
-52
-52
-61
-60
-61
-62
-65
-63
-63
-56
-52
-56
-69
-67
-71
-74
-78
-80
-83
-78
-77
-83
-97
-90
-92
-92
-93
-90
-87
-80
-76
-80
-83
-75
-74
-70
-68
-65
-61
-53
-51
-60
-64
-61
-63
-65
-65
-65
-61
-56
-56
-67
-67
-64
-63
-60
-55
-50
-42
-32
-29
-35
-27
-22
-15
-11
-3
3
16
25
26
19
26
27
30
31
35
38
49
55
52
41
50
49
50
51
55
60
69
75
74
74
86
90
97
102
110
118
131
138
134
135
143
145
147
149
150
155
161
161
151
152
155
155
157
160
164
170
178
180
171
179
183
188
190
198
202
213
220
220
213
219
221
224
225
231
234
246
252
248
238
245
244
245
247
252
257
266
273
271
269
279
281
286
291
300
310
324
334
333
339
352
359
368
378
387
400
413
419
413
418
423
425
425
426
425
426
428
423
407
410
407
406
403
404
403
407
408
402
388
387
379
373
363
357
347
346
337
319
296
290
276
264
253
244
234
228
216
195
174
163
144
127
109
93
78
67
49
21
0
-15
-33
-50
-66
-80
-90
-98
-113
-137
-151
-162
-177
-191
-203
-216
-223
-229
-242
-265
-267
-275
-281
-287
-289
-293
-292
-293
-300
-313
-309
-312
-312
-315
-314
-315
-309
-308
-316
-328
-325
-329
-331
-332
-331
-330
-325
-325
-335
-344
-341
-345
-346
-347
-345
-341
-332
-330
-337
-335
-328
-326
-323
-317
-311
-299
-287
-282
-285
-280
-274
-271
-268
-264
-261
-253
-245
-244
-254
-245
-243
-240
-238
-233
-229
-220
-214
-214
-220
-210
-209
-205
-205
-200
-197
-188
-185
-191
-199
-195
-196
-196
-196
-193
-191
-184
-182
-189
-193
-185
-183
-179
-174
-168
-160
-150
-146
-154
-154
-150
-150
-150
-149
-147
-140
-133
-133
-142
-141
-138
-136
-134
-130
-126
-116
-108
-107
-119
-111
-111
-111
-113
-112
-113
-109
-107
-111
-123
-116
-120
-120
-124
-124
-126
-121
-120
-127
-134
-129
-129
-128
-128
-125
-123
-117
-117
-126
-132
-126
-126
-125
-123
-119
-113
-105
-103
-111
-109
-104
-101
-98
-92
-86
-78
-70
-67
-73
-71
-68
-66
-64
-60
-57
-47
-40
-41
-52
-45
-46
-45
-44
-38
-33
-22
-12
-9
-13
2
6
13
18
27
34
46
53
51
49
58
61
65
68
73
78
88
94
90
91
102
107
114
123
133
145
160
169
167
176
187
197
207
220
232
246
261
268
266
272
277
280
281
283
283
289
291
285
269
270
266
262
258
258
256
260
261
255
239
244
238
235
231
231
231
235
236
229
221
224
220
217
214
212
210
211
206
190
179
176
167
159
152
147
146
147
142
127
123
123
120
118
117
118
121
127
127
118
121
124
127
128
133
136
146
151
148
135
137
134
131
125
120
113
110
101
84
56
49
30
13
-6
-23
-44
-64
-92
-132
-177
-217
-269
-325
-389
-455
-524
-591
-665
-748
-827
-897
-973
-1050
-1127
-1205
-1283
-1364
-1458
-1568
-1672
-1780
-1896
-2017
-2142
-2272
-2406
-2546
-2698
-2863
-3021
-3185
-3352
-3522
-3685
-3848
-4002
-4156
-4315
-4477
-4618
-4757
-4889
-5014
-5128
-5234
-5324
-5409
-5493
-5576
-5629
-5686
-5733
-5774
-5801
-5815
-5807
-5779
-5732
-5658
-5545
-5412
-5254
-5075
-4874
-4658
-4426
-4191
-3962
-3727
-3487
-3257
-3031
-2809
-2591
-2373
-2155
-1948
-1757
-1562
-1375
-1200
-1035
-878
-729
-587
-450
-326
-217
-97
14
125
231
339
439
540
632
710
774
846
907
965
1017
1067
1110
1153
1185
1202
1206
1225
1231
1236
1236
1235
1230
1226
1215
1194
1170
1157
1137
1118
1098
1080
1062
1047
1026
993
965
945
919
895
872
851
835
821
801
771
753
738
723
709
699
691
687
685
681
666
670
669
670
669
674
676
685
691
691
684
690
689
690
689
690
689
695
695
686
672
676
671
669
667
667
668
673
673
667
662
669
669
671
675
680
686
694
696
687
685
689
689
691
694
699
707
717
720
713
717
722
725
729
735
742
753
763
768
761
772
776
782
785
793
797
807
813
811
802
807
803
801
795
794
790
794
792
782
767
769
763
758
754
753
752
756
755
746
739
742
738
736
734
734
735
740
739
727
723
724
721
718
717
715
716
717
711
695
687
682
675
668
662
655
653
648
637
614
608
593
580
564
552
538
529
519
502
479
472
458
445
430
420
408
405
396
378
357
350
337
325
314
306
300
299
294
282
273
274
270
267
265
263
264
268
266
252
247
245
240
234
230
225
224
222
212
194
183
176
166
157
150
141
139
134
123
101
99
89
82
75
73
71
75
76
70
57
60
53
48
39
35
28
27
21
5
-14
-22
-36
-50
-64
-77
-89
-96
-108
-128
-146
-152
-165
-175
-184
-191
-195
-195
-202
-218
-226
-229
-237
-245
-250
-256
-258
-260
-268
-284
-293
-300
-308
-317
-323
-331
-332
-336
-347
-370
-373
-382
-390
-397
-401
-407
-407
-411
-421
-440
-439
-449
-455
-463
-467
-473
-474
-479
-492
-508
-513
-524
-533
-543
-550
-555
-554
-558
-572
-583
-585
-592
-598
-604
-609
-613
-614
-622
-639
-647
-652
-660
-669
-675
-682
-685
-686
-692
-706
-710
-713
-716
-720
-721
-723
-718
-716
-722
-738
-737
-742
-747
-753
-756
-761
-760
-762
-771
-789
-786
-794
-797
-802
-802
-804
-799
-798
-805
-813
-811
-814
-816
-817
-816
-814
-809
-810
-821
-829
-828
-834
-838
-841
-842
-840
-834
-834
-844
-844
-841
-842
-844
-843
-843
-840
-836
-836
-845
-844
-843
-843
-845
-844
-846
-839
-837
-842
-855
-851
-852
-851
-850
-846
-843
-835
-828
-829
-839
-827
-827
-824
-822
-817
-814
-807
-804
-809
-815
-809
-809
-807
-804
-798
-791
-780
-775
-779
-780
-771
-767
-762
-754
-744
-729
-710
-698
-696
-682
-665
-649
-631
-610
-588
-563
-535
-512
-496
-470
-447
-424
-403
-378
-356
-326
-300
-281
-271
-245
-223
-200
-177
-151
-125
-93
-64
-43
-30
5
28
53
76
102
125
151
173
186
198
222
240
260
278
300
322
349
369
380
395
419
438
458
480
501
524
548
564
566
578
591
599
608
618
629
643
658
669
670
685
696
708
717
731
744
763
779
787
788
802
811
820
827
838
848
865
878
883
882
902
912
926
939
956
973
994
1011
1022
1032
1053
1068
1083
1098
1112
1127
1144
1153
1152
1156
1167
1172
1178
1184
1190
1200
1210
1214
1206
1209
1214
1216
1219
1223
1228
1235
1244
1246
1238
1246
1249
1253
1254
1259
1262
1271
1276
1274
1263
1264
1259
1255
1248
1244
1238
1239
1235
1222
1203
1202
1193
1186
1179
1175
1170
1169
1163
1149
1136
1134
1125
1119
1112
1106
1100
1097
1088
1069
1055
1048
1036
1024
1013
1001
992
983
968
941
926
912
896
880
865
850
839
828
810
781
770
753
738
722
711
699
693
685
671
651
644
631
620
606
597
586
584
577
560
538
531
517
504
491
481
472
466
456
439
423
419
408
400
392
388
386
388
385
373
368
369
365
360
356
352
352
351
344
327
320
316
308
301
296
289
287
284
276
255
254
247
242
237
236
233
235
235
228
216
218
215
213
210
212
212
221
223
216
204
206
200
197
194
194
194
199
198
188
180
182
178
175
172
172
173
179
178
168
165
167
164
161
159
157
159
162
159
148
146
148
148
149
153
155
164
171
172
162
171
173
176
177
181
182
187
190
186
175
181
179
180
179
182
183
191
194
188
180
184
184
186
189
193
198
207
211
204
198
202
199
197
195
195
198
204
205
194
190
190
186
183
183
183
187
192
190
181
179
180
178
176
175
174
179
184
182
169
177
178
180
182
187
190
197
202
201
193
204
206
211
214
222
227
239
245
243
239
247
249
253
257
263
270
281
286
282
280
289
292
295
299
303
309
317
317
305
302
301
294
287
282
276
273
271
263
247
238
231
223
213
205
196
195
191
180
157
155
145
137
128
123
118
118
117
110
97
105
102
104
104
109
113
123
128
125
121
127
127
128
129
131
132
137
136
126
118
121
117
115
114
114
117
123
124
115
115
119
121
122
127
131
139
148
150
143
144
145
144
140
139
136
139
139
131
112
111
103
97
89
84
78
79
76
67
50
55
48
45
40
38
35
37
35
25
15
15
9
5
-2
-7
-11
-12
-19
-36
-49
-51
-59
-65
-69
-72
-71
-68
-70
-84
-85
-83
-83
-81
-77
-73
-66
-59
-58
-66
-64
-63
-62
-62
-58
-56
-46
-39
-40
-51
-46
-48
-49
-52
-51
-51
-44
-39
-42
-54
-45
-48
-47
-47
-44
-41
-33
-28
-30
-32
-23
-20
-15
-11
-4
2
11
15
9
8
15
15
15
16
17
21
27
27
15
16
19
19
21
24
27
31
36
36
26
28
27
29
29
33
36
46
53
53
45
51
52
56
58
63
67
78
84
80
67
74
69
66
63
63
62
66
66
59
52
55
52
50
49
49
51
56
57
47
42
46
43
40
38
37
39
42
40
27
26
27
26
25
25
24
25
29
27
16
18
17
16
13
13
11
16
17
10
-3
-3
-6
-7
-9
-7
-6
2
5
0
-13
-5
-8
-7
-7
-5
-3
4
7
1
-5
0
-4
-6
-9
-9
-8
-2
-3
-13
-18
-15
-17
-19
-20
-19
-14
-6
-5
-13
-9
-3
2
8
15
23
33
45
50
45
55
60
65
66
70
70
74
73
64
45
39
25
11
-7
-22
-39
-47
-63
-88
-122
-140
-169
-199
-233
-268
-308
-349
-400
-465
-535
-597
-669
-741
-813
-882
-951
-1018
-1092
-1179
-1263
-1344
-1434
-1530
-1629
-1732
-1838
-1950
-2075
-2218
-2359
-2507
-2666
-2832
-3004
-3180
-3356
-3532
-3713
-3903
-4071
-4243
-4408
-4570
-4724
-4874
-5011
-5140
-5262
-5379
-5471
-5556
-5627
-5691
-5741
-5784
-5812
-5840
-5869
-5892
-5886
-5873
-5839
-5783
-5701
-5595
-5460
-5305
-5137
-4948
-4732
-4512
-4282
-4050
-3815
-3584
-3355
-3138
-2936
-2733
-2528
-2332
-2141
-1955
-1778
-1605
-1441
-1292
-1159
-1021
-883
-750
-618
-487
-358
-226
-98
22
127
249
358
466
565
664
755
846
930
1003
1063
1132
1187
1239
1281
1321
1354
1389
1414
1426
1432
1450
1457
1462
1464
1465
1462
1461
1452
1432
1411
1400
1381
1363
1344
1326
1309
1295
1275
1245
1223
1208
1191
1177
1167
1160
1159
1160
1157
1147
1147
1151
1154
1159
1167
1175
1189
1202
1207
1199
1209
1211
1213
1213
1215
1215
1218
1218
1211
1196
1198
1190
1185
1177
1174
1170
1173
1173
1165
1157
1161
1158
1157
1156
1156
1157
1161
1160
1149
1139
1140
1132
1126
1118
1111
1104
1099
1087
1063
1048
1036
1021
1006
994
982
974
968
956
936
925
919
911
904
901
896
898
898
891
871
868
858
848
836
827
816
808
798
782
756
748
728
711
691
676
660
652
639
619
599
591
578
568
557
551
545
545
539
525
512
511
502
495
487
479
473
469
458
437
426
418
406
394
384
373
365
358
346
326
316
308
299
290
283
276
276
273
263
240
236
224
213
200
190
179
173
163
145
117
109
90
75
58
46
34
27
17
-1
-19
-27
-39
-50
-60
-68
-74
-74
-80
-95
-107
-109
-118
-125
-132
-137
-139
-138
-143
-159
-163
-163
-166
-169
-171
-172
-170
-166
-167
-176
-174
-171
-168
-165
-159
-155
-144
-138
-140
-152
-148
-152
-155
-160
-163
-167
-166
-169
-181
-201
-201
-212
-220
-231
-239
-249
-255
-265
-283
-303
-312
-326
-339
-352
-363
-373
-377
-386
-405
-420
-425
-436
-445
-453
-459
-462
-462
-468
-486
-492
-497
-505
-514
-521
-529
-534
-538
-547
-565
-574
-584
-593
-605
-613
-623
-625
-632
-648
-672
-680
-692
-703
-714
-722
-731
-733
-738
-749
-768
-765
-772
-775
-779
-778
-778
-772
-771
-777
-784
-780
-781
-781
-781
-780
-779
-774
-776
-788
-795
-795
-801
-805
-809
-810
-809
-805
-808
-821
-822
-821
-822
-822
-820
-818
-813
-806
-804
-812
-807
-806
-805
-807
-806
-807
-802
-800
-807
-823
-823
-829
-834
-840
-843
-848
-845
-846
-855
-871
-867
-873
-875
-878
-876
-874
-869
-867
-872
-877
-870
-869
-866
-863
-857
-851
-841
-837
-844
-846
-840
-840
-840
-839
-836
-829
-820
-817
-825
-822
-816
-814
-810
-806
-800
-792
-783
-778
-784
-774
-770
-765
-763
-756
-751
-740
-731
-730
-735
-726
-723
-718
-715
-709
-705
-694
-687
-688
-696
-683
-680
-674
-669
-661
-653
-641
-632
-633
-632
-621
-616
-609
-602
-593
-584
-571
-565
-569
-567
-557
-552
-546
-539
-532
-521
-508
-503
-510
-505
-498
-494
-489
-481
-474
-464
-453
-448
-454
-443
-437
-429
-423
-411
-401
-385
-370
-363
-362
-348
-338
-326
-317
-303
-291
-269
-253
-245
-242
-221
-208
-193
-178
-160
-141
-119
-100
-88
-74
-49
-30
-9
12
35
60
88
110
123
142
170
193
217
243
269
298
327
348
359
379
401
420
441
464
488
515
542
562
571
598
619
642
664
692
718
750
779
802
818
848
872
897
919
946
970
1001
1027
1043
1055
1080
1098
1116
1134
1152
1171
1193
1212
1222
1232
1253
1267
1281
1294
1308
1322
1339
1349
1347
1352
1362
1367
1371
1376
1380
1387
1393
1392
1381
1379
1380
1377
1375
1375
1374
1378
1381
1377
1361
1364
1359
1357
1353
1353
1350
1351
1350
1342
1326
1325
1315
1309
1300
1296
1290
1291
1285
1270
1252
1247
1234
1222
1210
1200
1191
1185
1175
1156
1139
1134
1122
1111
1099
1088
1079
1073
1062
1039
1025
1016
1004
992
982
971
964
958
945
924
913
905
895
887
881
876
876
875
866
847
848
843
840
837
838
836
839
839
832
817
819
811
806
797
793
787
786
781
767
752
747
738
731
724
721
718
721
718
706
697
699
694
691
690
690
693
700
701
691
690
692
691
689
689
688
689
690
687
676
673
674
674
673
674
675
683
689
687
675
683
684
685
686
688
690
695
697
692
678
683
677
675
670
672
671
676
677
669
660
661
657
655
652
652
653
658
658
648
641
643
640
638
637
637
640
646
647
638
639
643
645
647
652
655
662
670
672
665
666
668
669
667
667
666
672
675
670
655
658
654
651
645
643
638
640
638
631
615
621
616
614
612
613
612
616
614
604
594
594
589
584
579
576
574
576
572
557
545
542
532
523
515
508
504
503
494
474
465
459
450
441
435
430
427
426
420
404
398
390
382
372
365
356
354
348
335
311
304
290
277
262
250
238
232
223
207
183
181
167
158
148
141
134
131
125
112
100
98
89
83
75
69
62
59
50
30
13
6
-7
-19
-30
-39
-46
-51
-62
-83
-93
-100
-109
-117
-121
-126
-127
-127
-131
-144
-146
-149
-150
-152
-150
-148
-138
-132
-132
-141
-135
-133
-131
-128
-123
-117
-104
-94
-91
-96
-81
-77
-70
-65
-56
-48
-37
-29
-28
-28
-18
-14
-10
-6
-1
5
14
16
9
6
13
13
14
17
20
25
31
30
16
14
13
9
6
4
2
4
7
5
-7
-5
-5
-4
-5
-1
2
12
19
18
10
15
15
17
18
21
22
30
35
30
18
25
20
17
12
9
7
7
4
-6
-17
-18
-27
-36
-45
-54
-63
-67
-77
-98
-112
-119
-132
-143
-154
-164
-171
-177
-190
-214
-225
-234
-244
-252
-258
-263
-265
-267
-273
-290
-290
-295
-298
-304
-304
-305
-300
-298
-302
-314
-311
-312
-310
-309
-303
-298
-284
-275
-273
-278
-262
-255
-246
-237
-225
-212
-196
-183
-178
-174
-158
-151
-142
-134
-124
-114
-99
-90
-92
-88
-78
-72
-66
-59
-52
-39
-26
-18
-21
-13
-3
5
14
25
36
50
65
73
70
84
91
99
103
111
116
126
132
131
123
128
128
130
131
136
139
150
155
150
140
146
145
145
146
149
152
159
161
156
150
157
156
156
157
160
165
173
174
165
162
165
163
161
160
160
163
167
165
154
153
154
153
152
152
151
156
160
159
146
153
152
153
152
155
157
164
168
167
158
165
164
166
165
168
168
176
178
171
160
163
160
159
158
159
161
166
167
159
153
158
157
159
162
169
178
191
198
193
195
203
206
209
212
216
222
228
229
220
219
219
216
213
211
209
212
214
209
193
196
191
188
184
183
181
183
184
178
167
171
168
168
164
163
160
162
159
146
130
127
119
112
104
98
91
88
80
63
48
46
37
30
24
20
19
21
18
3
-3
-3
-7
-11
-12
-12
-7
0
1
-6
-4
0
2
4
8
11
20
27
26
12
17
15
14
11
13
13
18
21
19
10
19
18
21
20
25
28
38
42
37
31
36
35
34
32
31
29
30
24
9
-5
-7
-16
-22
-27
-31
-31
-28
-31
-43
-46
-43
-44
-43
-39
-35
-26
-18
-16
-24
-23
-21
-21
-22
-20
-18
-10
-3
-4
-16
-9
-9
-9
-9
-5
-4
3
5
0
-15
-12
-21
-26
-35
-40
-45
-45
-50
-61
-73
-73
-79
-82
-87
-88
-89
-85
-87
-98
-105
-101
-105
-107
-110
-113
-114
-113
-118
-134
-139
-142
-148
-154
-157
-162
-165
-169
-177
-195
-204
-213
-222
-232
-238
-246
-247
-252
-263
-286
-291
-302
-312
-323
-331
-340
-343
-350
-363
-385
-387
-400
-409
-419
-426
-433
-434
-439
-451
-463
-464
-469
-473
-476
-477
-476
-470
-468
-475
-478
-470
-468
-465
-460
-455
-446
-434
-427
-430
-421
-407
-395
-382
-367
-352
-335
-317
-305
-302
-289
-278
-266
-256
-243
-232
-215
-202
-196
-200
-188
-181
-172
-164
-153
-144
-129
-118
-115
-122
-107
-106
-102
-99
-93
-88
-79
-75
-78
-82
-76
-77
-77
-78
-75
-72
-63
-59
-64
-66
-59
-58
-55
-51
-46
-38
-27
-23
-30
-25
-18
-15
-11
-7
-5
-3
0
-5
-20
-25
-34
-44
-58
-70
-86
-98
-116
-145
-186
-216
-253
-294
-340
-389
-445
-501
-567
-646
-736
-806
-887
-964
-1041
-1113
-1186
-1254
-1326
-1408
-1494
-1573
-1665
-1762
-1865
-1970
-2081
-2193
-2316
-2456
-2601
-2745
-2902
-3063
-3227
-3392
-3553
-3709
-3867
-4031
-4177
-4315
-4449
-4575
-4689
-4793
-4882
-4957
-5026
-5093
-5136
-5172
-5201
-5226
-5243
-5258
-5261
-5260
-5253
-5239
-5189
-5121
-5025
-4905
-4759
-4591
-4395
-4185
-3968
-3745
-3493
-3247
-2997
-2753
-2511
-2275
-2041
-1815
-1602
-1391
-1170
-959
-753
-556
-367
-188
-17
139
277
412
550
677
800
922
1042
1163
1282
1389
1476
1566
1649
1720
1782
1837
1884
1927
1963
1987
1993
2009
2013
2014
2006
2000
1989
1981
1968
1947
1917
1898
1871
1844
1812
1781
1746
1716
1679
1631
1577
1540
1494
1450
1406
1365
1325
1288
1249
1202
1158
1128
1093
1063
1036
1013
992
977
959
931
912
901
887
874
864
854
848
843
830
806
792
779
762
746
731
717
706
695
678
650
641
626
614
600
593
586
585
584
577
563
564
558
554
547
544
538
539
535
522
505
504
495
488
480
474
468
465
458
443
429
426
418
412
406
402
399
400
394
378
368
365
357
350
345
341
340
341
334
318
312
308
303
299
298
298
303
307
304
289
294
291
290
287
287
285
289
290
285
272
274
267
263
256
252
246
249
245
232
216
214
206
200
194
189
185
186
182
168
157
156
149
144
140
136
134
135
131
116
108
106
100
94
89
84
81
78
68
48
37
29
19
10
4
-2
-2
-4
-12
-31
-30
-36
-39
-43
-43
-44
-40
-38
-42
-54
-51
-58
-63
-71
-75
-82
-83
-90
-106
-125
-133
-147
-160
-172
-182
-189
-191
-196
-208
-218
-216
-220
-223
-224
-223
-219
-211
-210
-220
-223
-221
-223
-226
-226
-227
-226
-226
-231
-246
-252
-256
-261
-265
-268
-270
-267
-265
-270
-286
-282
-284
-285
-286
-283
-281
-274
-269
-270
-279
-270
-271
-269
-269
-265
-264
-256
-254
-262
-272
-272
-279
-285
-292
-297
-301
-301
-306
-320
-331
-332
-338
-343
-348
-350
-350
-344
-345
-356
-359
-358
-361
-365
-368
-371
-370
-369
-373
-384
-387
-388
-390
-393
-393
-395
-389
-386
-391
-407
-405
-410
-413
-417
-419
-422
-421
-421
-428
-443
-437
-441
-441
-443
-440
-438
-431
-428
-433
-439
-435
-437
-438
-438
-437
-435
-430
-431
-442
-452
-452
-458
-463
-467
-469
-468
-464
-466
-478
-480
-479
-480
-482
-481
-480
-476
-472
-473
-483
-484
-486
-491
-498
-502
-509
-509
-512
-523
-543
-546
-555
-562
-571
-578
-585
-588
-594
-608
-631
-633
-648
-659
-673
-684
-696
-704
-715
-734
-752
-759
-771
-780
-789
-795
-801
-802
-809
-827
-841
-847
-859
-868
-877
-884
-888
-889
-897
-916
-923
-928
-935
-941
-945
-948
-947
-945
-948
-958
-959
-961
-962
-966
-966
-967
-961
-959
-965
-978
-974
-975
-974
-973
-970
-968
-959
-954
-955
-963
-950
-947
-940
-934
-925
-917
-905
-895
-892
-889
-874
-864
-851
-838
-823
-808
-788
-775
-773
-767
-753
-744
-733
-720
-706
-687
-666
-652
-648
-632
-613
-598
-581
-562
-542
-520
-496
-478
-470
-449
-432
-414
-398
-378
-359
-332
-309
-294
-286
-265
-248
-230
-214
-194
-175
-147
-123
-106
-95
-63
-41
-15
10
39
66
97
124
144
165
197
222
250
277
306
335
368
394
411
433
463
487
513
541
570
603
637
663
677
703
730
754
779
806
832
861
890
913
924
948
967
985
1001
1020
1036
1058
1077
1088
1090
1106
1117
1130
1141
1156
1169
1190
1207
1216
1218
1239
1250
1262
1274
1288
1301
1318
1330
1333
1334
1346
1350
1356
1359
1363
1367
1374
1375
1366
1362
1365
1364
1364
1364
1365
1370
1374
1372
1358
1355
1353
1349
1346
1345
1344
1345
1347
1343
1329
1331
1328
1326
1322
1324
1323
1328
1329
1321
1305
1302
1293
1284
1273
1267
1258
1258
1252
1236
1215
1211
1200
1191
1182
1177
1174
1175
1174
1164
1156
1159
1155
1153
1151
1151
1152
1156
1155
1143
1137
1138
1134
1129
1124
1119
1117
1116
1109
1092
1085
1082
1077
1073
1071
1069
1070
1072
1068
1053
1058
1056
1056
1055
1058
1058
1063
1065
1060
1047
1048
1042
1038
1031
1028
1023
1024
1019
1005
986
981
969
959
950
943
936
934
929
915
902
900
891
883
875
869
864
861
853
834
822
814
802
788
775
761
750
740
723
698
681
667
650
634
619
604
593
582
565
538
531
518
508
497
490
481
478
473
462
444
441
432
426
418
414
408
410
406
392
374
369
358
349
340
333
326
324
318
302
288
285
275
267
260
257
256
260
258
245
240
240
236
231
227
221
220
218
210
193
183
175
164
152
141
130
124
116
100
73
66
53
41
28
19
8
1
-7
-22
-44
-49
-62
-73
-86
-94
-104
-108
-117
-134
-152
-156
-165
-173
-180
-185
-190
-189
-193
-205
-214
-211
-213
-214
-215
-213
-210
-203
-202
-212
-213
-210
-210
-210
-207
-203
-196
-187
-183
-186
-181
-173
-167
-162
-153
-146
-131
-118
-113
-119
-105
-99
-91
-84
-75
-67
-54
-45
-41
-46
-32
-29
-21
-17
-9
-2
11
18
18
17
27
32
39
45
53
62
74
80
77
75
85
89
95
102
112
123
137
143
138
143
149
153
157
163
170
179
189
193
188
190
194
196
197
202
205
216
224
225
216
226
229
233
236
242
247
258
266
268
261
275
277
281
282
286
288
295
296
290
282
285
282
279
277
277
277
281
279
268
261
265
264
265
267
272
279
289
293
287
291
299
303
308
314
321
329
337
339
332
334
336
337
337
341
343
353
360
360
350
356
357
359
360
366
371
382
390
390
382
394
395
399
400
404
407
413
416
411
405
410
408
408
405
405
405
409
407
395
388
389
386
383
381
378
376
376
368
349
341
334
325
316
308
299
294
289
280
260
252
242
233
222
216
208
207
202
190
170
165
156
149
142
139
136
139
140
133
117
123
118
116
113
114
115
120
122
117
110
113
109
107
104
102
100
101
97
82
71
67
56
46
37
30
27
27
21
5
2
1
-2
-4
-5
-6
-5
-3
-5
-18
-16
-18
-19
-22
-22
-25
-21
-22
-30
-46
-47
-53
-57
-61
-61
-62
-56
-54
-62
-78
-74
-80
-83
-87
-87
-87
-83
-82
-90
-99
-97
-102
-105
-109
-111
-112
-108
-110
-122
-129
-128
-134
-140
-145
-149
-150
-149
-155
-171
-176
-179
-185
-189
-192
-196
-198
-198
-203
-218
-217
-221
-223
-229
-230
-233
-231
-233
-242
-259
-261
-268
-273
-281
-286
-292
-291
-295
-309
-330
-332
-343
-350
-357
-362
-365
-365
-367
-378
-388
-386
-390
-391
-391
-389
-386
-379
-379
-389
-393
-392
-394
-396
-397
-397
-392
-386
-386
-397
-397
-395
-396
-397
-396
-395
-390
-385
-383
-393
-385
-381
-376
-372
-363
-357
-344
-334
-331
-334
-322
-315
-306
-299
-288
-280
-264
-255
-255
-259
-246
-241
-233
-226
-217
-208
-194
-185
-185
-185
-173
-166
-156
-146
-132
-116
-96
-81
-77
-65
-48
-35
-23
-8
6
25
45
58
61
73
87
96
106
117
128
142
156
163
159
175
183
192
199
210
220
235
248
257
258
274
282
293
300
310
318
333
341
340
334
343
345
348
351
356
361
369
373
367
362
370
371
375
380
387
394
405
408
401
402
409
412
416
422
428
438
449
454
450
454
461
466
472
481
489
504
517
524
519
533
537
542
544
549
551
556
558
551
534
530
516
501
481
462
440
423
399
366
329
301
265
226
182
137
88
40
-17
-87
-162
-231
-309
-387
-467
-545
-622
-696
-776
-866
-949
-1028
-1114
-1204
-1297
-1396
-1496
-1602
-1721
-1856
-1988
-2125
-2271
-2424
-2581
-2744
-2904
-3069
-3241
-3423
-3583
-3746
-3905
-4060
-4207
-4349
-4481
-4605
-4726
-4843
-4930
-5016
-5087
-5151
-5202
-5247
-5281
-5315
-5354
-5390
-5410
-5424
-5423
-5406
-5367
-5303
-5210
-5096
-4967
-4810
-4620
-4417
-4198
-3969
-3733
-3494
-3254
-3025
-2811
-2592
-2373
-2162
-1954
-1748
-1547
-1350
-1159
-984
-825
-667
-512
-362
-216
-70
73
221
364
495
612
744
864
980
1089
1193
1289
1381
1462
1529
1579
1640
1682
1720
1748
1773
1788
1803
1807
1798
1782
1774
1756
1735
1710
1684
1655
1627
1592
1547
1505
1471
1431
1393
1355
1319
1287
1259
1227
1186
1156
1132
1106
1082
1061
1042
1028
1016
1002
982
972
966
961
955
954
952
956
957
949
931
929
921
914
904
897
889
886
880
865
842
839
826
816
805
798
791
789
784
771
758
755
748
742
737
733
729
730
724
707
693
688
676
663
650
638
628
621
608
583
569
557
543
528
516
504
496
491
481
464
458
453
448
442
441
437
441
440
431
413
412
404
398
391
386
380
379
374
360
338
337
326
318
311
308
304
305
303
294
285
286
281
278
275
274
274
278
276
263
253
253
247
242
239
237
238
241
238
224
221
219
213
206
201
195
192
191
186
171
168
162
157
150
146
139
139
136
125
107
105
97
91
84
80
75
78
77
70
56
64
62
65
68
74
81
92
100
102
104
118
127
137
147
157
167
179
184
176
171
172
166
161
155
149
145
143
133
110
99
89
77
65
56
46
39
34
24
3
-3
-13
-22
-34
-41
-49
-51
-56
-67
-87
-92
-102
-110
-120
-128
-138
-140
-147
-161
-182
-182
-191
-198
-205
-210
-215
-217
-222
-235
-249
-250
-259
-266
-275
-283
-290
-294
-303
-322
-335
-340
-349
-357
-363
-367
-368
-368
-376
-394
-400
-404
-411
-416
-420
-423
-424
-423
-429
-445
-444
-451
-456
-464
-468
-475
-474
-477
-487
-504
-506
-514
-520
-529
-533
-538
-535
-537
-548
-564
-562
-569
-573
-577
-579
-582
-580
-582
-591
-600
-597
-602
-606
-610
-611
-613
-610
-614
-628
-637
-638
-644
-650
-654
-658
-658
-658
-665
-683
-690
-694
-701
-706
-711
-715
-717
-718
-724
-743
-743
-750
-754
-761
-762
-766
-764
-765
-772
-787
-788
-797
-803
-813
-819
-827
-828
-835
-851
-872
-875
-886
-896
-905
-912
-916
-916
-919
-929
-937
-932
-933
-931
-929
-925
-920
-911
-908
-914
-913
-905
-902
-900
-896
-893
-887
-882
-883
-894
-896
-897
-900
-902
-902
-903
-900
-897
-900
-915
-910
-911
-909
-909
-905
-901
-892
-884
-884
-890
-882
-880
-876
-874
-867
-861
-848
-840
-841
-846
-837
-835
-831
-828
-822
-815
-804
-796
-796
-795
-782
-775
-767
-760
-750
-738
-723
-714
-715
-707
-694
-684
-675
-664
-654
-640
-626
-618
-619
-610
-599
-590
-581
-570
-560
-546
-532
-525
-529
-512
-502
-490
-477
-461
-445
-425
-407
-395
-390
-368
-354
-337
-322
-301
-282
-255
-234
-221
-211
-188
-170
-151
-132
-110
-86
-58
-33
-17
1
30
51
73
96
122
150
183
209
226
251
281
307
334
362
390
423
456
484
504
533
565
595
625
656
686
723
757
784
801
837
866
896
925
957
987
1022
1053
1078
1094
1129
1154
1183
1208
1238
1265
1297
1323
1340
1355
1379
1397
1416
1434
1452
1470
1492
1508
1512
1517
1531
1536
1541
1544
1547
1551
1557
1556
1541
1534
1528
1518
1507
1498
1488
1480
1474
1462
1442
1431
1422
1412
1400
1391
1381
1378
1374
1362
1341
1338
1328
1320
1311
1304
1296
1293
1286
1273
1252
1251
1238
1229
1217
1209
1199
1193
1184
1166
1148
1140
1127
1115
1104
1095
1086
1081
1070
1049
1033
1027
1016
1006
999
994
992
993
988
972
967
965
961
957
956
955
957
960
958
947
944
941
936
929
925
919
920
919
910
892
892
885
879
873
869
865
866
866
858
843
849
844
842
838
837
833
832
827
815
802
800
793
787
781
777
773
773
767
751
740
738
730
724
719
715
714
714
708
691
685
681
675
669
667
664
665
666
662
648
644
639
633
625
620
614
614
612
602
583
579
570
561
550
542
533
530
524
511
490
490
479
473
465
463
461
463
464
458
455
462
464
468
471
476
481
490
493
485
481
486
485
485
485
487
493
499
499
489
491
496
498
502
508
514
522
533
537
532
539
542
547
549
556
559
569
574
570
558
560
557
553
548
546
544
548
549
541
526
531
525
522
518
517
516
519
519
512
505
510
509
509
509
511
514
520
521
512
507
510
507
504
502
500
500
503
499
484
482
481
479
477
476
475
475
478
475
462
463
460
458
455
456
456
462
464
459
446
446
440
436
430
427
423
426
425
414
397
398
390
385
380
379
378
382
382
375
368
372
369
367
365
365
368
374
376
368
365
371
371
371
372
372
376
380
377
364
361
360
356
352
349
347
348
350
348
335
340
340
342
343
349
351
359
364
361
350
353
350
349
345
344
340
342
338
323
301
296
280
266
250
237
223
212
197
172
147
133
111
90
70
53
38
28
12
-14
-33
-45
-60
-75
-87
-97
-103
-107
-117
-137
-145
-150
-158
-164
-169
-174
-175
-175
-181
-198
-196
-202
-206
-212
-215
-220
-219
-221
-228
-242
-242
-248
-250
-255
-256
-258
-251
-251
-259
-270
-265
-266
-265
-262
-257
-251
-242
-237
-242
-245
-239
-239
-238
-238
-235
-230
-221
-219
-228
-230
-226
-226
-227
-225
-223
-215
-207
-204
-210
-208
-204
-203
-201
-198
-194
-185
-177
-175
-186
-178
-178
-175
-175
-171
-170
-163
-159
-161
-171
-164
-165
-163
-163
-159
-157
-149
-146
-153
-162
-157
-157
-156
-156
-153
-150
-142
-140
-145
-149
-141
-139
-136
-132
-126
-117
-106
-100
-106
-103
-96
-93
-91
-86
-81
-73
-63
-61
-68
-68
-66
-66
-66
-64
-62
-54
-46
-45
-56
-46
-44
-40
-37
-30
-22
-10
1
7
5
21
29
39
45
56
63
77
84
82
79
86
88
91
93
97
101
109
112
107
105
115
119
127
136
147
160
177
188
187
195
207
215
223
232
240
251
263
268
264
268
274
277
280
285
289
299
308
309
297
305
305
306
307
312
316
326
335
337
333
348
353
362
368
378
385
399
409
409
409
419
422
427
431
437
442
450
453
447
443
450
451
454
457
461
467
475
476
466
464
466
464
463
464
464
466
469
466
454
449
446
443
438
438
436
442
444
439
422
423
418
414
410
411
411
418
422
420
410
420
419
421
421
426
429
437
441
437
431
436
434
432
428
426
424
425
420
404
391
388
378
368
359
350
343
339
329
308
299
294
285
277
271
264
259
254
243
223
212
201
187
173
161
147
141
130
111
83
71
53
36
18
4
-12
-23
-37
-60
-92
-104
-128
-150
-173
-193
-215
-232
-255
-285
-316
-338
-365
-391
-416
-438
-458
-472
-491
-518
-541
-553
-571
-586
-600
-611
-618
-622
-631
-651
-660
-665
-673
-680
-685
-690
-694
-696
-702
-717
-720
-724
-726
-730
-728
-726
-717
-711
-711
-718
-709
-704
-697
-691
-683
-675
-660
-650
-648
-656
-642
-639
-633
-629
-622
-616
-606
-599
-600
-602
-593
-590
-586
-582
-577
-570
-558
-552
-556
-555
-547
-544
-541
-536
-530
-521
-511
-506
-513
-508
-502
-499
-496
-492
-488
-482
-474
-471
-478
-471
-466
-461
-458
-450
-444
-433
-424
-423
-430
-421
-418
-413
-410
-405
-401
-389
-383
-384
-393
-382
-381
-376
-370
-361
-352
-340
-332
-332
-332
-322
-319
-314
-309
-303
-295
-284
-280
-286
-288
-282
-282
-281
-277
-272
-261
-249
-243
-248
-241
-234
-229
-223
-216
-209
-199
-188
-183
-188
-176
-170
-163
-159
-151
-145
-133
-122
-118
-120
-108
-100
-89
-80
-68
-59
-42
-31
-28
-32
-16
-9
1
12
25
39
57
71
77
83
100
110
123
134
146
158
172
180
176
177
183
184
186
189
193
202
213
217
211
215
223
228
234
243
251
263
276
283
278
291
296
302
306
313
317
325
330
329
321
326
327
329
329
332
333
343
347
343
335
344
347
352
357
364
372
385
393
392
392
403
408
414
421
429
437
450
455
450
451
459
462
465
470
475
482
489
487
473
468
464
457
449
442
436
434
433
425
405
405
397
390
380
374
366
362
354
338
314
302
282
261
238
217
193
176
152
115
73
42
1
-43
-92
-144
-202
-262
-332
-414
-498
-572
-653
-733
-812
-889
-965
-1037
-1115
-1207
-1294
-1379
-1474
-1574
-1677
-1787
-1898
-2015
-2144
-2289
-2434
-2583
-2741
-2904
-3068
-3236
-3398
-3560
-3725
-3898
-4046
-4197
-4339
-4475
-4598
-4714
-4813
-4903
-4988
-5068
-5122
-5173
-5212
-5244
-5266
-5285
-5291
-5295
-5294
-5281
-5236
-5174
-5086
-4971
-4828
-4662
-4471
-4266
-4055
-3831
-3587
-3346
-3103
-2865
-2631
-2401
-2173
-1958
-1759
-1556
-1353
-1159
-973
-796
-629
-469
-319
-184
-65
55
172
282
387
491
591
694
790
873
937
1012
1072
1126
1170
1211
1244
1276
1301
1313
1311
1322
1320
1317
1307
1298
1284
1275
1257
1230
1199
1177
1148
1120
1089
1061
1032
1008
979
940
905
880
848
819
789
762
739
720
697
663
642
625
608
592
579
568
561
557
550
538
536
538
541
543
550
556
569
580
583
576
587
591
595
598
604
607
614
618
613
600
605
599
598
595
598
600
609
613
610
606
613
615
619
623
630
638
649
655
650
648
655
654
654
654
655
659
665
665
653
651
652
649
646
645
644
646
649
648
639
639
641
643
643
646
648
657
663
660
647
652
650
648
646
647
645
648
648
641
625
631
625
623
619
619
618
623
624
616
609
612
610
610
611
613
616
623
623
613
605
606
601
597
594
592
592
595
591
574
568
563
554
544
535
526
519
513
501
481
471
461
451
438
430
420
417
412
400
379
375
366
357
348
341
333
331
326
313
293
295
287
283
278
278
277
282
283
277
271
276
275
276
277
281
284
292
292
281
275
277
272
267
263
259
258
258
251
232
224
219
210
203
199
196
197
200
199
188
188
185
182
177
178
176
183
186
181
167
166
160
154
146
140
132
130
123
107
82
78
62
48
34
21
8
-1
-13
-31
-48
-51
-59
-63
-68
-71
-72
-69
-73
-87
-97
-100
-109
-118
-126
-134
-139
-143
-153
-176
-187
-197
-210
-223
-233
-243
-250
-256
-266
-286
-292
-301
-308
-317
-322
-328
-326
-327
-336
-353
-356
-365
-373
-385
-395
-407
-413
-425
-446
-475
-484
-504
-522
-539
-555
-570
-581
-594
-614
-633
-640
-653
-664
-676
-685
-695
-701
-713
-736
-752
-761
-775
-788
-800
-811
-818
-825
-838
-863
-875
-885
-898
-910
-919
-928
-934
-939
-950
-972
-978
-990
-1001
-1013
-1021
-1032
-1036
-1043
-1057
-1079
-1088
-1102
-1115
-1129
-1139
-1151
-1154
-1162
-1179
-1202
-1206
-1218
-1228
-1239
-1246
-1252
-1254
-1260
-1273
-1286
-1287
-1295
-1301
-1306
-1309
-1310
-1306
-1307
-1317
-1319
-1313
-1312
-1309
-1304
-1297
-1287
-1276
-1272
-1278
-1274
-1267
-1262
-1256
-1249
-1241
-1231
-1221
-1216
-1222
-1209
-1203
-1196
-1190
-1179
-1171
-1157
-1145
-1140
-1141
-1128
-1121
-1111
-1103
-1089
-1077
-1056
-1041
-1034
-1031
-1012
-999
-984
-969
-950
-930
-906
-885
-873
-861
-839
-823
-806
-790
-773
-754
-731
-714
-707
-693
-672
-655
-638
-620
-602
-580
-557
-541
-534
-516
-495
-476
-455
-433
-412
-387
-361
-342
-334
-306
-285
-263
-243
-220
-200
-177
-158
-146
-142
-124
-115
-102
-93
-79
-68
-51
-40
-39
-40
-28
-22
-14
-4
8
23
42
58
66
76
98
113
131
149
170
194
221
242
253
272
297
317
338
360
383
411
439
462
477
501
528
553
579
607
636
671
705
733
751
790
822
855
887
922
954
989
1023
1051
1071
1108
1135
1166
1194
1226
1254
1288
1315
1333
1346
1371
1390
1409
1428
1448
1466
1488
1504
1510
1516
1533
1542
1553
1564
1577
1593
1611
1622
1622
1630
1642
1650
1656
1663
1669
1678
1685
1687
1679
1679
1681
1680
1677
1676
1673
1677
1678
1671
1652
1653
1647
1641
1634
1631
1627
1627
1625
1617
1602
1605
1598
1594
1587
1582
1574
1571
1562
1543
1522
1512
1497
1482
1468
1455
1443
1434
1421
1398
1378
1369
1354
1341
1329
1320
1314
1311
1302
1282
1272
1265
1256
1247
1240
1233
1228
1223
1212
1193
1181
1171
1160
1147
1137
1126
1121
1113
1098
1072
1064
1048
1033
1018
1007
994
987
977
962
938
935
921
910
896
887
875
868
857
838
818
808
792
777
762
748
735
726
712
688
668
658
642
628
615
603
593
586
572
548
535
525
512
500
490
481
476
472
463
447
440
435
429
422
420
416
420
420
412
393
391
383
377
370
366
361
362
360
352
335
339
333
330
326
326
325
330
331
326
321
326
326
327
328
330
332
337
336
325
318
320
316
313
311
311
314
320
320
309
310
313
313
313
315
317
321
325
324
313
313
312
311
308
310
310
318
323
320
309
313
312
313
313
317
320
330
338
336
326
338
338
341
344
349
354
363
368
367
365
374
377
381
384
388
393
402
405
397
393
397
394
392
390
386
385
384
377
358
351
345
336
326
318
309
301
294
281
258
248
236
224
209
198
185
178
168
150
125
114
99
85
72
63
53
52
47
35
16
18
11
7
3
3
3
6
5
-3
-13
-13
-21
-29
-38
-45
-52
-54
-62
-81
-94
-100
-112
-122
-131
-138
-140
-140
-144
-157
-158
-156
-156
-156
-153
-151
-146
-140
-139
-148
-143
-141
-138
-138
-133
-131
-123
-119
-122
-131
-124
-122
-116
-111
-103
-96
-81
-72
-71
-77
-63
-59
-52
-45
-34
-22
-7
4
5
7
20
25
33
40
48
57
70
76
71
70
75
75
75
76
78
83
89
89
78
78
81
81
81
82
83
88
93
94
83
91
92
95
96
101
103
112
118
117
109
116
117
121
123
128
131
141
145
139
127
132
128
127
126
127
128
132
132
123
114
117
113
111
109
111
113
119
118
108
104
105
102
98
96
96
99
104
103
92
91
92
91
89
90
90
95
101
102
92
102
105
109
111
117
120
128
134
133
125
131
129
129
125
122
114
113
103
82
54
39
16
-7
-30
-53
-77
-101
-131
-174
-218
-253
-298
-345
-396
-450
-506
-563
-628
-704
-774
-839
-908
-976
-1042
-1108
-1171
-1236
-1311
-1402
-1489
-1578
-1675
-1775
-1878
-1987
-2098
-2217
-2349
-2499
-2633
-2778
-2923
-3070
-3209
-3346
-3472
-3593
-3714
-3833
-3928
-4023
-4106
-4183
-4245
-4298
-4334
-4364
-4391
-4410
-4407
-4403
-4392
-4374
-4344
-4300
-4234
-4150
-4050
-3923
-3759
-3577
-3371
-3147
-2907
-2654
-2391
-2131
-1883
-1631
-1383
-1149
-925
-711
-508
-311
-122
51
207
358
500
625
737
840
931
1018
1094
1156
1200
1258
1303
1345
1380
1414
1440
1467
1488
1498
1498
1511
1512
1514
1512
1512
1509
1511
1503
1484
1459
1444
1421
1396
1369
1342
1314
1288
1256
1215
1176
1147
1112
1078
1045
1013
984
958
927
886
854
828
798
769
742
715
692
671
645
611
588
569
550
533
522
512
510
507
498
480
482
478
478
478
481
484
491
495
492
478
483
477
472
464
459
452
451
445
431
415
409
396
385
373
363
353
348
339
320
305
299
288
278
270
262
257
253
243
222
211
203
192
182
173
163
156
149
136
115
104
95
85
75
68
61
61
57
46
26
25
20
17
15
18
20
30
36
36
27
39
41
47
50
58
63
74
80
77
74
80
81
84
86
91
96
105
108
100
95
98
94
90
86
82
80
81
76
60
55
53
48
44
42
39
39
39
33
19
15
9
2
-7
-13
-21
-22
-28
-42
-64
-70
-81
-91
-103
-112
-121
-125
-134
-150
-175
-179
-194
-205
-218
-226
-235
-240
-249
-265
-281
-286
-296
-303
-309
-313
-315
-313
-316
-329
-337
-336
-341
-344
-346
-347
-344
-337
-337
-347
-345
-341
-340
-338
-333
-328
-320
-312
-308
-314
-308
-304
-300
-297
-291
-286
-274
-267
-266
-273
-264
-259
-252
-247
-240
-236
-225
-220
-222
-233
-223
-224
-222
-221
-216
-213
-205
-201
-205
-208
-201
-200
-196
-192
-186
-179
-169
-165
-172
-176
-171
-172
-172
-171
-169
-163
-156
-156
-167
-166
-163
-164
-163
-160
-157
-150
-141
-137
-142
-134
-129
-124
-120
-112
-106
-91
-80
-76
-79
-69
-63
-57
-53
-46
-42
-31
-25
-28
-39
-31
-33
-34
-36
-35
-36
-33
-35
-46
-57
-58
-66
-74
-82
-89
-96
-100
-113
-137
-158
-173
-193
-214
-233
-253
-270
-286
-309
-342
-364
-384
-406
-426
-444
-460
-472
-483
-497
-523
-533
-547
-561
-578
-589
-601
-607
-616
-631
-652
-660
-672
-684
-698
-708
-719
-723
-731
-747
-770
-773
-786
-796
-807
-816
-826
-834
-846
-865
-884
-890
-903
-913
-924
-933
-940
-944
-954
-974
-986
-992
-1001
-1010
-1017
-1023
-1024
-1025
-1032
-1051
-1059
-1065
-1073
-1080
-1085
-1089
-1091
-1091
-1097
-1115
-1115
-1121
-1125
-1130
-1129
-1131
-1126
-1125
-1130
-1142
-1141
-1145
-1148
-1152
-1152
-1154
-1147
-1145
-1152
-1163
-1157
-1159
-1160
-1160
-1157
-1155
-1148
-1145
-1150
-1156
-1151
-1152
-1151
-1150
-1147
-1142
-1133
-1129
-1136
-1134
-1126
-1121
-1116
-1109
-1101
-1090
-1078
-1073
-1077
-1071
-1062
-1054
-1046
-1037
-1027
-1014
-1001
-994
-998
-982
-973
-962
-952
-938
-925
-907
-892
-885
-884
-869
-861
-851
-843
-829
-816
-794
-778
-769
-764
-744
-729
-712
-693
-671
-648
-618
-591
-572
-551
-517
-490
-461
-431
-399
-365
-327
-296
-274
-244
-208
-176
-144
-110
-75
-36
6
41
69
106
146
183
220
258
295
336
375
406
425
462
491
522
553
586
618
655
690
