-2184
-1722
-1254
-777
-300
173
641
1103
1547
1974
2392
2792
3182
3564
3930
4279
4610
4923
5201
5450
5670
5853
6010
6140
6241
6319
6378
6428
6453
6466
6467
6444
6410
6360
6291
6206
6111
6007
5888
5763
5630
5481
5330
5172
5007
4839
4674
4507
4333
4161
3984
3801
3625
3446
3265
3084
2913
2742
2569
2403
2235
2067
1908
1752
1600
1453
1317
1183
1052
929
802
681
570
463
361
269
191
114
44
-15
-75
-126
-166
-204
-237
-263
-278
-300
-318
-333
-358
-376
-392
-410
-427
-439
-447
-461
-472
-486
-508
-526
-545
-567
-588
-603
-616
-633
-647
-663
-682
-693
-703
-713
-720
-717
-715
-716
-713
-716
-721
-724
-728
-735
-742
-743
-747
-754
-758
-773
-788
-799
-815
-832
-847
-856
-871
-884
-894
-911
-923
-929
-938
-944
-945
-936
-934
-930
-922
-922
-917
-911
-907
-903
-894
-884
-879
-874
-871
-877
-879
-881
-887
-892
-891
-890
-894
-897
-904
-918
-927
-936
-945
-951
-948
-945
-945
-940
-940
-940
-936
-932
-929
-924
-911
-903
-896
-886
-888
-890
-888
-891
-895
-897
-895
-898
-901
-902
-912
-919
-923
-932
-940
-945
-941
-943
-943
-940
-942
-937
-930
-924
-915
-900
-881
-868
-854
-842
-838
-831
-825
-822
-819
-812
-805
-806
-804
-808
-818
-823
-830
-838
-845
-845
-847
-853
-856
-863
-873
-878
-883
-887
-889
-880
-875
-869
-858
-857
-853
-845
-840
-836
-830
-819
-815
-811
-807
-813
-817
-820
-827
-835
-840
-838
-844
-849
-854
-866
-874
-880
-888
-894
-895
-893
-895
-893
-892
-896
-894
-890
-887
-883
-871
-859
-852
-841
-836
-835
-830
-827
-827
-826
-818
-815
-816
-815
-820
-827
-829
-835
-842
-848
-846
-850
-855
-855
-864
-872
-874
-879
-883
-883
-876
-874
-871
-865
-869
-870
-869
-872
-877
-879
-876
-881
-885
-891
-903
-913
-923
-937
-951
-961
-968
-981
-990
-1000
-1016
-1025
-1033
-1042
-1049
-1049
-1047
-1049
-1046
-1046
-1049
-1044
-1040
-1037
-1032
-1020
-1011
-1007
-1001
-1003
-1008
-1011
-1019
-1030
-1042
-1047
-1063
-1082
-1099
-1128
-1156
-1182
-1212
-1242
-1269
-1290
-1316
-1340
-1359
-1388
-1410
-1428
-1448
-1466
-1477
-1483
-1494
-1502
-1510
-1525
-1537
-1548
-1564
-1579
-1591
-1600
-1615
-1627
-1642
-1663
-1679
-1696
-1716
-1736
-1750
-1764
-1783
-1797
-1818
-1840
-1855
-1871
-1888
-1901
-1906
-1912
-1919
-1921
-1929
-1937
-1940
-1946
-1952
-1958
-1956
-1961
-1969
-1975
-1991
-2006
-2018
-2033
-2048
-2061
-2066
-2077
-2087
-2093
-2110
-2121
-2129
-2139
-2146
-2146
-2141
-2140
-2135
-2129
-2127
-2120
-2111
-2104
-2095
-2080
-2062
-2050
-2036
-2024
-2020
-2012
-2005
-2001
-1996
-1984
-1971
-1962
-1947
-1938
-1931
-1918
-1906
-1895
-1881
-1862
-1842
-1824
-1801
-1783
-1765
-1740
-1716
-1691
-1663
-1623
-1590
-1557
-1520
-1489
-1455
-1418
-1382
-1346
-1308
-1261
-1221
-1180
-1136
-1103
-1065
-1024
-987
-949
-905
-859
-819
-777
-736
-702
-662
-621
-582
-540
-491
-437
-388
-334
-281
-234
-180
-125
-72
-19
42
101
156
214
264
310
360
406
449
492
540
585
627
672
708
742
780
813
844
878
921
958
995
1036
1070
1108
1150
1191
1233
1277
1332
1378
1426
1475
1512
1553
1593
1628
1662
1698
1736
1766
1796
1824
1844
1867
1891
1910
1930
1954
1979
1997
2018
2035
2048
2066
2084
2101
2120
2148
2174
2196
2223
2243
2261
2283
2303
2321
2340
2364
2384
2401
2421
2429
2435
2444
2448
2450
2454
2465
2468
2470
2473
2467
2462
2460
2454
2449
2448
2457
2458
2462
2470
2469
2475
2483
2488
2495
2505
2516
2520
2526
2528
2521
2518
2515
2508
2501
2499
2497
2489
2484
2475
2461
2454
2445
2435
2425
2424
2421
2416
2414
2408
2401
2400
2399
2399
2404
2417
2429
2441
2458
2465
2473
2485
2492
2499
2507
2522
2529
2535
2541
2539
2537
2537
2531
2524
2518
2519
2509
2499
2489
2468
2450
2433
2412
2392
2375
2360
2340
2324
2306
2282
2265
2250
2232
2216
2206
2198
2183
2171
2153
2131
2113
2094
2074
2053
2040
2024
2005
1988
1965
1940
1918
1895
1871
1849
1835
1817
1798
1784
1761
1740
1725
1709
1694
1683
1679
1670
1660
1652
1635
1619
1606
1587
1569
1552
1542
1524
1507
1490
1464
1443
1423
1401
1378
1360
1344
1322
1304
1285
1261
1243
1226
1207
1190
1181
1173
1161
1153
1140
1123
1111
1098
1082
1065
1055
1042
1024
1008
987
962
942
920
898
876
862
843
823
806
778
753
733
712
692
676
668
656
645
637
620
607
597
584
572
563
561
550
540
530
511
495
478
459
439
425
413
395
379
362
337
317
296
273
250
235
220
201
187
170
150
137
125
113
103
102
100
95
93
85
75
69
59
49
38
35
25
14
7
-10
-25
-36
-51
-66
-78
-84
-95
-106
-115
-134
-148
-158
-170
-180
-184
-179
-180
-176
-171
-172
-167
-161
-158
-154
-146
-136
-132
-125
-122
-128
-130
-133
-140
-147
-148
-149
-156
-158
-167
-180
-187
-195
-204
-210
-208
-207
-206
-201
-199
-198
-190
-183
-177
-169
-153
-143
-135
-124
-123
-121
-117
-116
-115
-114
-107
-108
-109
-107
-116
-121
-122
-128
-133
-134
-131
-133
-134
-135
-140
-140
-137
-136
-132
-122
-107
-98
-86
-76
-72
-65
-58
-53
-48
-36
-25
-19
-9
-5
-6
-2
0
1
4
14
23
29
38
43
45
52
55
58
63
78
86
96
109
115
124
137
149
161
174
194
207
221
237
242
251
261
267
273
282
295
302
309
314
313
316
319
321
324
333
345
352
363
371
373
381
388
393
400
413
425
432
440
440
434
431
424
414
405
401
394
384
376
361
344
330
313
296
281
274
261
246
236
217
202
191
179
168
160
160
156
154
157
149
148
149
148
146
149
154
152
152
150
140
134
127
118
108
104
102
92
86
75
59
49
40
30
22
22
22
20
24
23
21
25
29
31
37
49
58
63
71
69
66
65
60
52
45
45
38
29
22
6
-8
-18
-32
-46
-58
-62
-73
-82
-87
-102
-111
-116
-124
-129
-130
-125
-126
-124
-122
-127
-127
-126
-128
-131
-129
-126
-130
-132
-138
-150
-157
-165
-175
-185
-187
-190
-198
-203
-216
-230
-239
-249
-259
-267
-268
-270
-275
-276
-286
-297
-306
-320
-336
-353
-366
-390
-421
-455
-501
-551
-603
-664
-730
-800
-868
-949
-1033
-1122
-1226
-1332
-1443
-1561
-1684
-1807
-1927
-2052
-2173
-2293
-2420
-2542
-2660
-2780
-2901
-3018
-3140
-3273
-3410
-3559
-3720
-3884
-4059
-4246
-4441
-4638
-4849
-5072
-5296
-5530
-5766
-5994
-6213
-6422
-6619
-6797
-6964
-7120
-7255
-7379
-7480
-7548
-7589
-7596
-7567
-7497
-7398
-7268
-7105
-6922
-6711
-6472
-6212
-5926
-5613
-5264
-4897
-4502
-4082
-3651
-3201
-2739
-2275
-1807
-1337
-868
-412
33
460
860
1246
1617
1972
2314
2649
2970
3268
3546
3796
4017
4220
4398
4553
4689
4814
4920
5009
5087
5146
5192
5232
5259
5273
5276
5274
5256
5224
5183
5121
5052
4979
4894
4801
4701
4600
4487
4368
4246
4114
3980
3848
3711
3573
3438
3311
3174
3040
2906
2764
2629
2496
2363
2232
2108
1989
1866
1750
1635
1516
1405
1298
1193
1092
1002
918
834
758
683
608
544
484
428
380
345
314
284
263
241
221
207
195
184
174
172
165
157
153
137
123
113
100
87
78
75
67
61
58
47
38
33
25
18
14
20
17
17
17
11
9
10
8
8
13
22
25
30
33
28
27
25
18
11
9
6
-2
-8
-19
-36
-50
-66
-84
-101
-112
-127
-146
-162
-183
-206
-225
-244
-264
-281
-289
-300
-311
-317
-332
-343
-351
-361
-371
-378
-380
-387
-394
-398
-411
-422
-429
-440
-451
-457
-458
-466
-474
-482
-499
-511
-522
-535
-547
-553
-555
-562
-565
-568
-576
-578
-579
-581
-581
-574
-565
-561
-554
-552
-556
-556
-559
-564
-568
-565
-564
-566
-567
-574
-583
-588
-597
-607
-618
-619
-628
-636
-640
-654
-664
-669
-675
-681
-682
-677
-677
-675
-669
-674
-675
-673
-675
-678
-678
-673
-677
-679
-682
-692
-699
-705
-715
-724
-729
-733
-743
-752
-763
-782
-796
-808
-822
-835
-841
-846
-856
-860
-870
-882
-887
-893
-900
-903
-901
-900
-904
-906
-913
-924
-932
-942
-954
-966
-969
-978
-989
-996
-1013
-1029
-1042
-1058
-1074
-1087
-1093
-1105
-1115
-1121
-1136
-1145
-1150
-1158
-1165
-1166
-1161
-1163
-1162
-1162
-1170
-1174
-1178
-1185
-1193
-1197
-1199
-1209
-1216
-1226
-1244
-1257
-1270
-1287
-1303
-1314
-1327
-1344
-1357
-1377
-1399
-1414
-1429
-1444
-1456
-1460
-1464
-1470
-1473
-1481
-1491
-1497
-1506
-1516
-1524
-1524
-1532
-1540
-1547
-1563
-1577
-1589
-1603
-1618
-1631
-1637
-1648
-1658
-1665
-1683
-1697
-1707
-1720
-1730
-1733
-1730
-1730
-1726
-1720
-1717
-1709
-1698
-1689
-1678
-1663
-1646
-1636
-1622
-1613
-1612
-1607
-1606
-1609
-1613
-1612
-1613
-1622
-1628
-1641
-1658
-1671
-1687
-1706
-1724
-1736
-1750
-1766
-1778
-1795
-1811
-1821
-1833
-1842
-1847
-1840
-1839
-1837
-1832
-1836
-1837
-1835
-1836
-1838
-1838
-1831
-1832
-1833
-1831
-1843
-1850
-1856
-1865
-1874
-1879
-1880
-1887
-1891
-1896
-1905
-1909
-1910
-1914
-1915
-1910
-1899
-1891
-1878
-1866
-1858
-1842
-1827
-1814
-1802
-1783
-1767
-1757
-1744
-1738
-1736
-1730
-1727
-1726
-1723
-1716
-1711
-1709
-1702
-1702
-1701
-1695
-1692
-1687
-1680
-1662
-1650
-1637
-1620
-1608
-1593
-1573
-1554
-1533
-1508
-1474
-1446
-1418
-1388
-1370
-1346
-1320
-1298
-1274
-1246
-1214
-1187
-1157
-1128
-1106
-1080
-1052
-1028
-1001
-969
-934
-904
-869
-837
-809
-774
-739
-705
-668
-622
-577
-536
-489
-448
-410
-366
-325
-286
-246
-202
-161
-124
-84
-52
-22
12
41
70
101
140
171
202
234
259
287
319
349
380
416
461
499
540
586
623
667
715
761
810
863
920
971
1023
1074
1117
1164
1211
1254
1297
1345
1393
1434
1478
1517
1550
1586
1621
1654
1688
1729
1769
1805
1844
1877
1909
1945
1980
2015
2051
2095
2136
2175
2218
2251
2284
2320
2351
2380
2410
2445
2473
2498
2524
2540
2556
2573
2585
2595
2606
2624
2630
2637
2644
2642
2644
2648
2651
2654
2661
2672
2678
2686
2692
2692
2696
2700
2700
2701
2706
2711
2709
2708
2702
2689
2680
2668
2653
2638
2630
2618
2602
2589
2570
2548
2530
2510
2491
2473
2464
2452
2440
2433
2417
2404
2397
2387
2377
2372
2373
2369
2365
2364
2353
2345
2338
2325
2312
2300
2295
2280
2265
2249
2225
2205
2186
2164
2142
2123
2108
2087
2069
2051
2026
2008
1991
1974
1959
1952
1946
1936
1929
1918
1902
1891
1879
1865
1851
1844
1834
1819
1805
1784
1760
1739
1716
1693
1669
1653
1631
1607
1586
1554
1524
1498
1469
1441
1417
1400
1378
1358
1341
1317
1297
1281
1262
1245
1232
1227
1214
1204
1194
1176
1162
1149
1133
1117
1107
1099
1086
1075
1063
1043
1029
1014
996
980
971
964
953
945
934
919
911
903
896
891
895
898
898
901
900
896
895
892
888
884
887
884
879
876
861
847
835
819
803
788
778
763
747
735
712
694
679
662
648
638
637
631
627
624
616
613
612
609
606
608
612
609
609
606
595
590
583
574
565
562
559
550
545
535
520
511
501
491
483
483
481
478
479
477
474
478
481
484
489
503
511
517
525
523
521
523
521
518
518
523
523
522
524
515
509
508
502
495
493
497
494
494
494
488
488
490
491
494
503
517
526
539
549
553
561
568
572
576
586
594
596
600
598
591
588
583
576
570
568
563
554
547
534
518
506
492
479
466
464
456
449
445
433
423
418
411
404
400
402
397
392
389
374
364
356
344
332
324
320
311
303
294
279
267
257
244
233
227
226
220
218
214
206
203
201
198
197
205
213
216
223
224
221
223
221
218
215
218
219
215
214
208
199
195
188
181
173
175
168
161
157
144
134
128
120
113
108
110
105
102
103
92
87
85
79
73
73
76
72
69
64
52
44
35
22
11
4
0
-11
-18
-29
-46
-57
-68
-81
-93
-96
-100
-106
-106
-113
-121
-123
-126
-130
-130
-126
-122
-120
-115
-118
-122
-123
-127
-132
-136
-131
-134
-139
-142
-154
-164
-171
-182
-193
-202
-204
-213
-221
-226
-241
-249
-252
-257
-259
-254
-245
-241
-234
-228
-228
-224
-220
-218
-216
-209
-202
-201
-198
-199
-206
-208
-212
-218
-224
-223
-225
-232
-236
-246
-258
-265
-273
-281
-286
-284
-282
-281
-274
-274
-274
-269
-267
-264
-259
-245
-237
-230
-221
-220
-219
-215
-216
-217
-218
-211
-213
-214
-214
-225
-232
-238
-245
-252
-254
-251
-253
-251
-248
-252
-249
-244
-240
-234
-222
-208
-199
-188
-180
-176
-169
-162
-158
-153
-141
-132
-127
-119
-118
-120
-117
-116
-116
-115
-107
-102
-98
-90
-90
-90
-84
-82
-78
-70
-53
-40
-26
-8
4
18
35
48
61
74
94
105
117
129
129
132
135
134
132
133
137
135
135
135
127
124
122
119
116
121
128
131
139
144
145
152
159
165
172
187
201
211
224
230
234
241
246
249
254
263
270
274
283
281
279
282
282
282
284
294
300
306
315
318
325
336
346
358
375
403
423
447
472
489
510
533
552
570
591
614
629
645
657
661
668
672
672
672
675
679
677
676
670
659
653
646
639
632
633
631
627
627
622
616
616
614
610
607
610
607
601
596
579
562
547
528
507
488
473
453
431
411
382
355
331
303
276
252
238
217
200
185
163
148
135
122
110
105
104
97
93
86
71
60
48
32
16
6
-4
-19
-32
-49
-72
-88
-106
-125
-143
-153
-164
-178
-189
-202
-216
-225
-236
-246
-256
-257
-263
-271
-277
-296
-316
-336
-363
-397
-433
-471
-520
-574
-632
-706
-783
-865
-958
-1056
-1155
-1252
-1363
-1479
-1602
-1738
-1875
-2013
-2154
-2294
-2426
-2554
-2687
-2814
-2942
-3074
-3201
-3330
-3466
-3608
-3749
-3898
-4060
-4226
-4404
-4592
-4780
-4978
-5185
-5398
-5607
-5819
-6033
-6239
-6441
-6635
-6813
-6981
-7136
-7278
-7394
-7498
-7579
-7629
-7660
-7656
-7615
-7545
-7442
-7307
-7141
-6955
-6746
-6513
-6268
-6000
-5706
-5391
-5051
-4683
-4287
-3878
-3453
-3017
-2579
-2130
-1675
-1222
-769
-319
122
541
946
1336
1708
2076
2435
2783
3119
3446
3753
4032
4290
4517
4715
4895
5050
5184
5301
5409
5500
5576
5644
5695
5733
5763
5775
5770
5749
5721
5669
5602
5527
5429
5321
5204
5074
4935
4791
4646
4490
4331
4172
4002
3836
3674
3508
3343
3184
3032
2875
2721
2569
2413
2264
2118
1972
1830
1696
1568
1437
1313
1189
1064
948
837
727
623
531
443
357
280
203
130
68
11
-41
-86
-120
-150
-180
-203
-228
-251
-269
-288
-306
-323
-329
-342
-356
-366
-386
-404
-418
-436
-453
-470
-479
-496
-511
-523
-546
-563
-576
-592
-605
-612
-613
-617
-618
-617
-620
-618
-614
-611
-607
-598
-585
-579
-571
-566
-568
-564
-562
-562
-563
-556
-551
-551
-547
-550
-556
-557
-560
-563
-563
-556
-550
-545
-536
-533
-531
-524
-520
-516
-511
-496
-489
-484
-476
-478
-479
-479
-484
-490
-496
-495
-502
-508
-512
-528
-539
-548
-560
-572
-579
-582
-591
-597
-602
-613
-618
-621
-626
-629
-625
-617
-614
-607
-603
-604
-599
-596
-595
-595
-589
-586
-589
-591
-600
-613
-622
-632
-643
-653
-657
-663
-671
-676
-687
-699
-707
-717
-727
-735
-732
-734
-737
-736
-744
-748
-750
-755
-759
-762
-756
-759
-761
-760
-772
-780
-787
-798
-808
-814
-817
-824
-831
-839
-854
-864
-874
-886
-896
-901
-903
-910
-912
-916
-924
-925
-926
-928
-929
-920
-912
-907
-898
-895
-895
-891
-889
-890
-889
-884
-883
-885
-885
-894
-904
-910
-921
-932
-942
-943
-952
-961
-969
-985
-998
-1007
-1019
-1029
-1037
-1035
-1040
-1044
-1044
-1055
-1060
-1062
-1066
-1070
-1069
-1067
-1070
-1073
-1077
-1090
-1100
-1111
-1126
-1141
-1150
-1158
-1171
-1179
-1191
-1207
-1217
-1229
-1242
-1253
-1256
-1261
-1269
-1271
-1279
-1289
-1293
-1297
-1302
-1305
-1301
-1299
-1299
-1295
-1301
-1307
-1308
-1314
-1321
-1326
-1325
-1330
-1336
-1341
-1354
-1366
-1374
-1387
-1398
-1408
-1410
-1421
-1431
-1439
-1457
-1469
-1480
-1492
-1503
-1509
-1511
-1517
-1519
-1521
-1530
-1533
-1536
-1542
-1546
-1544
-1541
-1544
-1544
-1549
-1560
-1566
-1575
-1587
-1601
-1608
-1618
-1633
-1646
-1665
-1685
-1702
-1720
-1739
-1756
-1765
-1777
-1789
-1795
-1809
-1819
-1823
-1829
-1833
-1834
-1827
-1825
-1821
-1814
-1815
-1814
-1810
-1810
-1809
-1807
-1798
-1797
-1796
-1795
-1802
-1805
-1808
-1813
-1818
-1819
-1817
-1821
-1823
-1825
-1833
-1834
-1833
-1832
-1828
-1814
-1797
-1783
-1763
-1747
-1735
-1718
-1701
-1685
-1667
-1641
-1618
-1599
-1578
-1563
-1550
-1535
-1522
-1511
-1500
-1482
-1469
-1458
-1443
-1440
-1434
-1424
-1417
-1409
-1399
-1382
-1369
-1355
-1337
-1326
-1311
-1291
-1274
-1255
-1232
-1202
-1179
-1155
-1131
-1114
-1093
-1070
-1050
-1031
-1008
-981
-961
-939
-919
-906
-888
-870
-853
-834
-808
-779
-754
-724
-698
-674
-642
-611
-581
-547
-505
-465
-427
-387
-352
-321
-287
-256
-227
-198
-163
-133
-105
-75
-56
-35
-11
9
30
53
82
107
134
164
186
213
245
274
306
344
391
432
477
524
565
612
661
707
754
804
858
904
951
995
1030
1069
1108
1142
1176
1214
1252
1285
1320
1349
1374
1405
1434
1462
1493
1532
1569
1605
1643
1677
1710
1747
1781
1815
1850
1893
1928
1962
1998
2021
2044
2068
2087
2105
2124
2148
2165
2181
2200
2208
2218
2229
2234
2239
2248
2262
2269
2276
2284
2285
2290
2296
2300
2306
2318
2334
2346
2361
2375
2383
2395
2406
2414
2420
2432
2442
2447
2454
2455
2452
2453
2451
2446
2442
2443
2441
2434
2430
2420
2408
2401
2393
2387
2383
2390
2392
2394
2400
2397
2398
2403
2405
2407
2409
2416
2415
2413
2412
2398
2386
2376
2359
2343
2330
2323
2309
2298
2285
2264
2247
2230
2211
2192
2180
2170
2156
2147
2135
2118
2107
2096
2084
2074
2072
2069
2061
2058
2049
2035
2027
2017
2005
1994
1987
1978
1965
1954
1937
1918
1903
1885
1867
1849
1841
1825
1808
1795
1772
1751
1735
1717
1699
1685
1679
1668
1658
1652
1635
1623
1614
1602
1591
1585
1582
1574
1565
1556
1539
1525
1511
1493
1475
1463
1454
1440
1428
1414
1393
1378
1362
1343
1326
1317
1307
1295
1288
1275
1260
1251
1242
1233
1224
1220
1213
1200
1189
1169
1144
1122
1092
1060
1026
998
958
913
866
805
740
670
590
503
410
316
206
89
-33
-174
-314
-457
-609
-765
-920
-1077
-1243
-1412
-1584
-1767
-1951
-2138
-2330
-2522
-2710
-2899
-3099
-3301
-3512
-3732
-3951
-4176
-4408
-4644
-4880
-5123
-5375
-5625
-5881
-6135
-6377
-6611
-6835
-7047
-7241
-7423
-7591
-7735
-7861
-7960
-8023
-8054
-8047
-7999
-7899
-7765
-7587
-7364
-7102
-6795
-6442
-6052
-5628
-5174
-4691
-4200
-3695
-3178
-2664
-2142
-1614
-1088
-560
-24
518
1057
1597
2131
2649
3159
3656
4137
4609
5078
5539
5985
6422
6839
7231
7606
7958
8285
8589
8875
9131
9350
9539
9686
9795
9871
9907
9904
9868
9806
9709
9582
9433
9251
9045
8823
8578
8316
8042
7765
7470
7166
6858
6537
6214
5892
5567
5242
4921
4611
4295
3985
3683
3376
3083
2799
2522
2257
2007
1772
1543
1327
1122
921
737
565
403
254
121
0
-117
-222
-322
-421
-508
-589
-666
-738
-797
-855
-914
-967
-1024
-1081
-1131
-1180
-1227
-1269
-1301
-1333
-1362
-1384
-1411
-1435
-1451
-1469
-1484
-1493
-1494
-1499
-1502
-1501
-1508
-1512
-1512
-1516
-1519
-1521
-1514
-1517
-1520
-1522
-1534
-1542
-1549
-1560
-1570
-1575
-1577
-1583
-1585
-1587
-1593
-1593
-1590
-1588
-1584
-1573
-1560
-1552
-1539
-1530
-1526
-1515
-1506
-1498
-1488
-1471
-1456
-1444
-1429
-1420
-1414
-1404
-1396
-1390
-1382
-1368
-1357
-1349
-1336
-1334
-1329
-1319
-1312
-1304
-1292
-1272
-1257
-1241
-1224
-1214
-1202
-1186
-1176
-1163
-1148
-1123
-1107
-1089
-1070
-1059
-1044
-1027
-1013
-998
-979
-957
-942
-924
-907
-898
-884
-870
-859
-847
-828
-808
-794
-775
-762
-754
-741
-731
-724
-719
-708
-703
-704
-704
-710
-720
-727
-736
-746
-755
-757
-763
-772
-776
-792
-805
-814
-826
-838
-847
-850
-858
-866
-872
-885
-896
-903
-915
-924
-930
-927
-934
-938
-943
-957
-967
-976
-988
-999
-1006
-1009
-1017
-1022
-1029
-1043
-1051
-1059
-1069
-1078
-1081
-1082
-1089
-1091
-1098
-1109
-1115
-1122
-1130
-1138
-1138
-1141
-1148
-1152
-1161
-1174
-1184
-1197
-1212
-1227
-1234
-1248
-1262
-1273
-1294
-1314
-1329
-1345
-1362
-1375
-1382
-1393
-1405
-1414
-1432
-1448
-1459
-1473
-1486
-1495
-1495
-1503
-1508
-1513
-1525
-1533
-1540
-1550
-1560
-1566
-1570
-1581
-1590
-1601
-1619
-1633
-1646
-1663
-1678
-1686
-1693
-1703
-1708
-1718
-1730
-1735
-1742
-1749
-1755
-1753
-1753
-1756
-1758
-1764
-1771
-1775
-1781
-1789
-1798
-1798
-1805
-1815
-1823
-1842
-1860
-1875
-1892
-1910
-1925
-1933
-1946
-1958
-1967
-1986
-1999
-2008
-2019
-2026
-2028
-2023
-2024
-2023
-2023
-2029
-2033
-2035
-2040
-2043
-2041
-2037
-2039
-2039
-2042
-2053
-2059
-2067
-2079
-2090
-2096
-2102
-2112
-2119
-2130
-2145
-2152
-2160
-2167
-2171
-2167
-2162
-2159
-2152
-2149
-2147
-2140
-2136
-2132
-2128
-2114
-2109
-2106
-2099
-2103
-2106
-2107
-2111
-2117
-2122
-2121
-2130
-2139
-2147
-2166
-2181
-2192
-2206
-2218
-2224
-2225
-2229
-2231
-2231
-2236
-2235
-2232
-2230
-2225
-2215
-2201
-2193
-2181
-2173
-2172
-2166
-2160
-2156
-2153
-2145
-2138
-2137
-2132
-2136
-2145
-2149
-2157
-2165
-2171
-2171
-2172
-2175
-2173
-2175
-2177
-2172
-2167
-2161
-2151
-2127
-2109
-2090
-2066
-2049
-2028
-2003
-1981
-1958
-1934
-1904
-1880
-1856
-1829
-1815
-1796
-1774
-1755
-1735
-1711
-1684
-1661
-1635
-1608
-1585
-1555
-1521
-1486
-1448
-1400
-1347
-1298
-1243
-1190
-1140
-1085
-1030
-976
-922
-861
-802
-747
-690
-642
-597
-550
-505
-464
-423
-378
-337
-299
-259
-227
-197
-162
-131
-99
-65
-20
18
58
102
140
181
227
271
318
366
423
472
521
572
611
653
695
732
770
810
853
891
930
968
998
1033
1068
1101
1136
1178
1222
1261
1305
1345
1382
1426
1472
1518
1565
1621
1677
1729
1784
1833
1878
1927
1972
2014
2055
2100
2140
2174
2211
2238
2262
2290
2313
2335
2359
2391
2416
2439
2463
2480
2498
2520
2539
2560
2584
2617
2642
2669
2698
2716
2739
2764
2785
2804
2827
2850
2867
2883
2897
2902
2910
2918
2922
2926
2935
2946
2950
2958
2961
2957
2958
2957
2954
2951
2956
2959
2959
2962
2959
2954
2956
2957
2957
2960
2968
2972
2975
2980
2975
2969
2966
2958
2950
2943
2943
2937
2930
2923
2906
2890
2876
2857
2840
2823
2814
2795
2778
2762
2736
2715
2695
2674
2654
2640
2631
2618
2609
2599
2583
2572
2561
2547
2535
2527
2522
2510
2502
2491
2474
2462
2449
2433
2417
2408
2395
2378
2362
2338
2312
2290
2267
2242
2220
2204
2185
2166
2152
2129
2108
2092
2074
2057
2043
2036
2024
2012
2001
1981
1963
1948
1929
1910
1893
1886
1868
1852
1836
1812
1792
1774
1753
1732
1715
1702
1684
1670
1655
1634
1620
1608
1595
1585
1584
1585
1583
1584
1581
1573
1570
1566
1559
1553
1554
1552
1546
1542
1533
1521
1513
1502
1490
1478
1472
1460
1447
1439
1420
1403
1391
1376
1362
1352
1349
1343
1337
1336
1327
1321
1319
1314
1311
1309
1314
1310
1307
1303
1289
1279
1269
1255
1241
1230
1221
1206
1192
1175
1151
1130
1110
1087
1065
1050
1038
1021
1010
994
975
964
953
942
934
935
935
931
932
926
918
913
905
895
884
879
868
856
846
825
805
788
766
743
722
706
684
662
644
617
595
579
561
545
535
534
527
523
520
510
506
503
498
494
493
494
489
484
477
461
449
436
419
403
393
383
367
354
335
312
294
274
255
238
232
225
216
212
205
198
197
194
191
189
195
195
194
195
185
175
169
158
146
136
131
119
108
99
81
65
52
35
19
8
5
-4
-10
-15
-25
-30
-32
-35
-36
-30
-20
-15
-7
-1
-1
3
7
9
11
18
24
26
30
27
20
18
15
10
6
9
9
4
3
-5
-14
-18
-24
-28
-31
-22
-19
-15
-7
-7
-5
1
4
7
12
21
25
29
35
30
27
25
18
11
8
8
2
-2
-7
-19
-28
-35
-43
-49
-49
-45
-45
-41
-37
-38
-32
-25
-18
-11
4
17
25
37
43
44
50
53
54
57
64
69
71
75
73
69
69
67
65
64
73
77
82
92
93
99
108
116
125
137
158
173
189
209
215
225
236
241
246
255
267
272
278
282
279
280
281
279
277
281
287
287
290
291
286
287
288
287
288
296
303
307
317
323
326
335
342
350
359
374
386
394
403
404
402
402
397
390
382
382
373
363
355
338
321
307
290
274
261
257
247
242
241
231
227
227
225
227
234
248
258
270
282
287
296
305
310
314
323
334
340
348
352
349
350
350
346
344
348
350
348
349
345
339
340
341
342
346
356
366
374
385
390
394
402
407
411
416
429
434
438
442
438
434
432
428
424
420
425
420
416
413
397
386
377
366
356
352
351
347
346
343
334
329
324
317
310
308
307
299
295
288
274
265
253
239
225
217
206
191
180
163
142
125
107
86
66
52
38
22
12
-4
-19
-27
-37
-45
-48
-43
-43
-43
-41
-48
-52
-55
-61
-68
-74
-73
-81
-88
-94
-111
-123
-134
-148
-161
-170
-177
-188
-197
-206
-221
-231
-239
-246
-251
-249
-243
-242
-236
-234
-236
-233
-230
-229
-229
-222
-217
-216
-213
-218
-226
-231
-239
-247
-255
-258
-264
-271
-273
-285
-296
-302
-312
-321
-328
-327
-330
-332
-331
-337
-339
-337
-338
-337
-333
-320
-315
-309
-301
-302
-299
-296
-297
-299
-297
-293
-296
-297
-300
-312
-319
-326
-335
-343
-346
-347
-352
-354
-360
-369
-373
-377
-381
-385
-379
-374
-371
-364
-361
-360
-355
-350
-347
-344
-334
-329
-325
-318
-321
-324
-323
-327
-332
-335
-332
-335
-338
-339
-349
-358
-363
-371
-378
-381
-373
-373
-370
-364
-364
-358
-349
-341
-331
-316
-298
-285
-271
-259
-256
-249
-242
-237
-233
-222
-212
-207
-199
-194
-195
-190
-186
-184
-181
-171
-163
-157
-149
-145
-143
-136
-130
-124
-115
-99
-87
-76
-60
-56
-51
-44
-41
-39
-36
-28
-26
-26
-24
-32
-39
-43
-52
-60
-64
-61
-65
-67
-68
-75
-77
-76
-76
-75
-68
-57
-50
-39
-30
-26
-17
-7
0
7
19
32
38
47
50
48
51
52
52
53
60
66
68
73
73
70
71
71
71
72
82
89
96
108
111
116
127
136
146
159
180
195
210
227
235
244
255
261
266
274
288
294
301
308
308
311
314
315
314
316
320
317
318
317
311
310
309
308
307
312
319
320
326
326
322
323
322
318
314
316
314
306
300
287
271
257
240
222
203
192
175
156
139
112
87
67
44
22
4
-6
-21
-33
-40
-57
-69
-77
-88
-97
-102
-100
-105
-108
-112
-122
-129
-135
-144
-152
-155
-156
-162
-165
-171
-183
-191
-198
-207
-214
-214
-212
-214
-209
-209
-210
-204
-198
-191
-181
-162
-145
-129
-112
-98
-86
-70
-56
-43
-30
-9
3
14
28
30
32
36
36
33
31
32
24
13
-1
-30
-60
-90
-130
-174
-218
-262
-316
-372
-433
-506
-581
-662
-751
-845
-940
-1036
-1144
-1255
-1374
-1506
-1638
-1774
-1913
-2052
-2183
-2312
-2445
-2572
-2704
-2839
-2971
-3108
-3252
-3400
-3549
-3706
-3871
-4038
-4214
-4392
-4569
-4752
-4939
-5127
-5304
-5486
-5661
-5824
-5983
-6128
-6254
-6371
-6473
-6562
-6629
-6683
-6712
-6713
-6697
-6645
-6561
-6450
-6309
-6139
-5944
-5735
-5506
-5259
-5001
-4720
-4416
-4090
-3739
-3358
-2952
-2532
-2095
-1650
-1202
-742
-279
182
640
1095
1534
1953
2359
2743
3113
3475
3824
4159
4480
4786
5068
5321
5551
5746
5913
6061
6183
6286
6373
6456
6521
6575
6624
6657
6685
6704
6707
6693
6661
6618
6550
6467
6373
6254
6126
5989
5837
5676
5510
5340
5157
4969
4777
4574
4373
4171
3967
3764
3567
3374
3178
2988
2801
2612
2435
2264
2097
1938
1793
1655
1520
1394
1267
1143
1029
917
807
703
609
516
427
345
261
180
108
37
-29
-88
-134
-182
-227
-263
-303
-337
-363
-388
-409
-426
-432
-443
-450
-453
-466
-472
-476
-482
-488
-491
-492
-499
-505
-513
-528
-539
-549
-562
-574
-582
-586
-596
-602
-610
-623
-631
-637
-645
-650
-645
-642
-641
-635
-636
-637
-632
-629
-626
-622
-611
-604
-600
-593
-596
-601
-602
-609
-617
-625
-626
-633
-642
-650
-666
-681
-693
-709
-724
-738
-742
-755
-767
-776
-796
-810
-822
-837
-850
-857
-861
-870
-875
-881
-894
-903
-911
-921
-930
-934
-936
-944
-948
-956
-969
-976
-984
-993
-1001
-1002
-1005
-1013
-1018
-1029
-1043
-1052
-1062
-1071
-1079
-1079
-1083
-1086
-1085
-1093
-1100
-1102
-1108
-1113
-1115
-1109
-1107
-1106
-1102
-1108
-1113
-1115
-1122
-1128
-1132
-1128
-1133
-1136
-1140
-1154
-1165
-1176
-1190
-1204
-1214
-1220
-1231
-1238
-1245
-1257
-1263
-1266
-1270
-1273
-1268
-1261
-1259
-1253
-1250
-1253
-1250
-1248
-1249
-1250
-1245
-1243
-1245
-1244
-1249
-1257
-1260
-1265
-1272
-1280
-1281
-1288
-1296
-1301
-1315
-1329
-1336
-1346
-1356
-1361
-1359
-1361
-1362
-1361
-1367
-1370
-1369
-1373
-1376
-1376
-1368
-1369
-1369
-1370
-1379
-1384
-1388
-1396
-1404
-1408
-1409
-1417
-1422
-1430
-1446
-1457
-1468
-1481
-1493
-1498
-1501
-1508
-1509
-1512
-1518
-1517
-1516
-1515
-1513
-1502
-1493
-1489
-1482
-1480
-1482
-1480
-1482
-1486
-1490
-1487
-1490
-1496
-1499
-1514
-1529
-1540
-1556
-1573
-1588
-1598
-1612
-1625
-1634
-1652
-1664
-1672
-1682
-1689
-1691
-1684
-1683
-1678
-1672
-1673
-1668
-1662
-1659
-1656
-1649
-1639
-1637
-1632
-1630
-1637
-1640
-1644
-1652
-1659
-1660
-1662
-1669
-1672
-1679
-1689
-1693
-1697
-1701
-1701
-1692
-1682
-1673
-1659
-1648
-1637
-1620
-1603
-1586
-1568
-1541
-1521
-1502
-1478
-1466
-1453
-1436
-1423
-1409
-1394
-1376
-1364
-1355
-1344
-1344
-1342
-1339
-1340
-1341
-1339
-1330
-1328
-1322
-1316
-1315
-1308
-1300
-1292
-1281
-1266
-1248
-1236
-1221
-1211
-1208
-1202
-1198
-1196
-1195
-1188
-1181
-1180
-1174
-1174
-1179
-1178
-1179
-1182
-1182
-1175
-1169
-1166
-1159
-1156
-1154
-1146
-1141
-1135
-1127
-1109
-1097
-1085
-1068
-1061
-1051
-1037
-1026
-1016
-1004
-987
-975
-963
-948
-945
-937
-925
-916
-905
-891
-870
-856
-840
-824
-813
-797
-778
-761
-742
-716
-687
-662
-632
-604
-581
-552
-522
-492
-460
-420
-381
-348
-312
-283
-260
-233
-209
-187
-164
-136
-109
-86
-59
-39
-21
1
19
35
51
76
94
111
132
144
158
176
191
207
226
253
275
300
329
348
371
398
421
444
472
504
531
559
586
607
632
657
680
703
731
760
784
810
833
850
872
896
918
943
975
1008
1037
1072
1100
1126
1159
1190
1220
1251
1288
1323
1352
1383
1406
1426
1449
1467
1485
1501
1527
1544
1560
1578
1585
1594
1605
1612
1619
1628
1643
1652
1662
1675
1678
1685
1696
1703
1712
1727
1746
1760
1777
1792
1801
1813
1824
1832
1840
1852
1865
1870
1877
1881
1878
1879
1879
1876
1873
1875
1874
1868
1865
1856
1844
1837
1830
1822
1818
1821
1823
1822
1826
1822
1817
1818
1815
1812
1810
1816
1814
1810
1807
1794
1783
1773
1760
1746
1732
1726
1712
1699
1687
1665
1646
1629
1610
1592
1581
1575
1566
1562
1558
1549
1546
1546
1544
1543
1547
1554
1555
1559
1560
1554
1553
1550
1544
1538
1540
1539
1533
1532
1524
1512
1506
1498
1488
1480
1477
1473
1467
1466
1458
1451
1450
1447
1446
1447
1457
1461
1465
1470
1465
1460
1457
1448
1439
1431
1430
1420
1410
1400
1377
1359
1342
1322
1303
1288
1275
1258
1244
1230
1209
1193
1179
1165
1152
1145
1142
1134
1131
1124
1114
1109
1104
1096
1089
1089
1086
1077
1071
1057
1039
1026
1009
990
972
959
945
928
916
895
873
858
839
821
807
800
789
779
773
760
751
746
738
733
730
738
736
736
736
726
721
717
711
705
704
706
702
700
696
685
678
672
663
655
652
651
646
644
639
631
629
628
626
626
636
646
654
667
675
681
691
700
707
715
728
737
742
751
750
749
751
749
747
747
753
752
751
752
746
741
741
738
737
740
753
759
768
780
784
795
808
820
833
849
868
879
891
899
898
898
898
893
888
888
887
881
876
866
852
841
828
813
799
793
785
774
767
754
740
730
719
708
699
697
692
686
683
670
657
648
634
619
606
600
587
575
565
546
528
515
497
480
466
460
446
432
420
401
388
378
366
357
354
356
354
356
357
353
355
359
360
363
372
382
386
393
394
391
391
389
385
381
385
385
381
379
371
360
353
346
337
331
335
335
334
339
335
335
340
343
347
354
366
373
380
388
385
382
381
374
366
360
360
350
342
333
316
303
290
274
259
248
240
226
215
203
184
172
160
147
137
134
134
129
128
123
114
110
105
97
90
90
88
81
75
63
48
36
20
3
-14
-23
-39
-57
-70
-95
-117
-135
-155
-173
-186
-192
-201
-207
-209
-219
-224
-224
-227
-228
-227
-219
-218
-216
-214
-220
-222
-224
-230
-236
-241
-243
-253
-259
-268
-284
-294
-305
-318
-329
-332
-334
-340
-340
-344
-349
-345
-341
-335
-326
-307
-290
-274
-256
-243
-233
-221
-212
-205
-200
-186
-182
-180
-176
-183
-190
-194
-202
-210
-218
-219
-225
-230
-232
-244
-251
-255
-262
-267
-266
-258
-255
-248
-240
-237
-231
-223
-219
-215
-207
-197
-193
-188
-185
-189
-189
-190
-194
-197
-193
-190
-193
-191
-195
-203
-206
-210
-214
-216
-209
-204
-200
-191
-187
-183
-174
-166
-158
-149
-131
-121
-112
-101
-101
-98
-93
-92
-90
-87
-78
-75
-71
-63
-67
-66
-63
-65
-66
-63
-56
-53
-48
-43
-44
-40
-35
-31
-24
-11
6
17
33
46
52
62
72
78
84
97
109
116
127
132
134
141
145
147
151
160
167
169
173
171
167
167
164
161
160
169
170
172
177
175
176
181
184
187
193
204
208
211
216
207
202
199
192
185
182
182
175
170
164
150
140
129
117
106
101
100
95
95
92
85
84
84
83
85
95
105
110
119
120
118
119
117
112
108
109
106
101
99
90
79
73
63
53
45
45
38
31
27
15
6
2
-4
-8
-9
-1
1
4
10
6
7
11
12
13
18
26
28
30
29
20
14
9
0
-9
-12
-13
-19
-23
-30
-42
-49
-56
-64
-70
-66
-63
-63
-58
-58
-60
-57
-55
-53
-50
-41
-34
-31
-24
-27
-32
-33
-39
-46
-52
-51
-58
-65
-70
-83
-93
-100
-110
-120
-129
-128
-134
-138
-138
-148
-152
-153
-155
-155
-149
-138
-132
-122
-114
-113
-107
-101
-98
-93
-84
-75
-72
-67
-67
-72
-72
-74
-79
-82
-79
-78
-82
-82
-89
-97
-99
-102
-105
-107
-102
-99
-96
-87
-87
-85
-77
-73
-68
-60
-46
-38
-32
-24
-26
-27
-27
-32
-37
-41
-37
-43
-47
-51
-64
-74
-81
-90
-98
-101
-99
-101
-99
-97
-99
-95
-88
-81
-71
-54
-35
-21
-3
11
19
32
43
53
63
80
95
104
116
120
121
124
124
121
119
122
121
119
120
111
104
103
99
96
97
106
109
114
121
121
124
129
130
132
135
146
147
149
151
145
142
140
135
129
128
130
126
125
122
113
109
106
101
98
103
110
114
122
129
132
142
153
164
177
197
215
228
244
252
258
265
271
274
278
289
294
296
302
296
290
288
281
274
268
269
264
260
258
249
243
242
238
237
240
251
255
261
268
266
268
269
267
264
265
269
266
266
264
254
249
244
235
226
222
219
211
206
197
184
178
171
164
160
164
167
169
176
180
184
193
201
209
217
233
243
250
260
259
258
261
259
256
254
258
256
252
249
234
221
210
195
180
168
164
153
145
137
124
116
111
106
102
105
111
111
115
118
113
113
112
108
105
107
109
107
107
100
89
81
71
58
45
37
25
9
-7
-30
-58
-84
-115
-149
-187
-219
-262
-310
-358
-419
-483
-549
-625
-708
-793
-879
-976
-1079
-1186
-1311
-1438
-1569
-1709
-1850
-1989
-2123
-2264
-2404
-2544
-2689
-2830
-2971
-3117
-3266
-3416
-3569
-3734
-3901
-4075
-4259
-4441
-4626
-4818
-5016
-5212
-5411
-5614
-5812
-6009
-6200
-6374
-6534
-6682
-6813
-6922
-7015
-7090
-7138
-7167
-7169
-7137
-7078
-6990
-6872
-6717
-6544
-6348
-6125
-5890
-5630
-5341
-5029
-4688
-4317
-3914
-3492
-3048
-2586
-2123
-1649
-1165
-681
-198
286
765
1224
1668
2096
2503
2902
3289
3661
4020
4365
4692
4988
5260
5500
5703
5884
6039
6166
6274
6369
6449
6510
6564
6600
6621
6634
6629
6604
6562
6507
6435
6345
6245
6127
5994
5854
5699
5533
5360
5189
5004
4814
4624
4421
4220
4021
3820
3619
3421
3233
3040
2854
2676
2492
2320
2157
1996
1841
1697
1561
1425
1296
1171
1043
924
810
697
589
491
400
306
219
133
45
-34
-109
-182
-248
-303
-353
-403
-445
-488
-529
-560
-590
-616
-636
-648
-658
-667
-672
-682
-693
-698
-707
-716
-725
-725
-732
-741
-748
-764
-779
-792
-808
-825
-840
-848
-862
-874
-882
-900
-911
-920
-929
-934
-934
-928
-926
-921
-915
-915
-910
-902
-898
-892
-882
-870
-865
-858
-855
-860
-861
-864
-870
-877
-879
-882
-891
-896
-907
-922
-931
-941
-952
-959
-960
-962
-966
-964
-969
-972
-969
-968
-966
-960
-945
-936
-929
-919
-918
-916
-911
-911
-911
-911
-902
-903
-903
-902
-913
-919
-924
-932
-941
-947
-951
-960
-967
-976
-990
-1000
-1007
-1017
-1024
-1025
-1023
-1026
-1024
-1025
-1030
-1028
-1026
-1026
-1025
-1016
-1009
-1007
-1002
-1004
-1010
-1011
-1014
-1020
-1024
-1024
-1027
-1032
-1034
-1046
-1058
-1066
-1077
-1089
-1097
-1096
-1099
-1102
-1100
-1104
-1104
-1100
-1097
-1092
-1084
-1067
-1058
-1047
-1036
-1035
-1032
-1027
-1027
-1027
-1025
-1021
-1023
-1022
-1023
-1032
-1038
-1043
-1051
-1060
-1063
-1065
-1072
-1075
-1080
-1090
-1094
-1096
-1099
-1100
-1093
-1087
-1085
-1079
-1080
-1083
-1081
-1080
-1081
-1082
-1076
-1075
-1076
-1075
-1084
-1093
-1098
-1106
-1115
-1120
-1118
-1123
-1129
-1133
-1145
-1154
-1159
-1166
-1170
-1170
-1160
-1157
-1151
-1141
-1141
-1134
-1125
-1119
-1112
-1102
-1090
-1084
-1078
-1074
-1078
-1080
-1082
-1088
-1093
-1094
-1094
-1100
-1103
-1109
-1121
-1127
-1134
-1143
-1149
-1147
-1147
-1150
-1147
-1148
-1149
-1146
-1143
-1140
-1136
-1124
-1117
-1111
-1102
-1104
-1107
-1107
-1111
-1117
-1123
-1123
-1130
-1139
-1147
-1164
-1179
-1191
-1207
-1221
-1235
-1241
-1256
-1270
-1283
-1304
-1321
-1335
-1351
-1364
-1373
-1377
-1386
-1392
-1400
-1414
-1423
-1430
-1441
-1450
-1453
-1455
-1462
-1465
-1474
-1487
-1496
-1506
-1519
-1530
-1533
-1538
-1547
-1554
-1566
-1581
-1591
-1604
-1617
-1629
-1632
-1638
-1645
-1647
-1658
-1665
-1666
-1670
-1672
-1671
-1664
-1661
-1658
-1651
-1653
-1653
-1650
-1652
-1654
-1653
-1646
-1647
-1647
-1647
-1655
-1659
-1663
-1668
-1673
-1673
-1670
-1672
-1672
-1672
-1678
-1678
-1676
-1674
-1669
-1657
-1643
-1633
-1618
-1609
-1605
-1595
-1588
-1583
-1577
-1564
-1553
-1546
-1537
-1534
-1533
-1529
-1527
-1525
-1523
-1512
-1506
-1500
-1490
-1489
-1484
-1474
-1465
-1454
-1439
-1416
-1396
-1374
-1347
-1328
-1305
-1276
-1252
-1226
-1196
-1159
-1129
-1098
-1066
-1040
-1010
-979
-950
-920
-887
-851
-821
-790
-761
-739
-712
-685
-660
-633
-599
-564
-533
-496
-464
-434
-397
-360
-324
-285
-238
-193
-151
-107
-69
-35
3
36
68
100
141
175
208
244
269
295
324
349
375
403
437
468
499
535
562
593
629
663
699
740
789
833
880
927
968
1013
1057
1097
1136
1178
1222
1257
1293
1325
1350
1379
1407
1431
1456
1486
1517
1542
1569
1589
1606
1628
1650
1670
1693
1723
1752
1779
1809
1836
1861
1892
1918
1945
1971
2007
2033
2057
2083
2097
2112
2129
2142
2155
2169
2191
2206
2221
2239
2246
2257
2271
2279
2287
2299
2314
2323
2334
2344
2348
2355
2363
2368
2373
2383
2396
2403
2413
2420
2419
2424
2428
2429
2430
2436
2441
2440
2443
2438
2430
2426
2421
2416
2412
2412
2410
2404
2401
2392
2382
2376
2368
2361
2356
2362
2360
2359
2361
2354
2351
2352
2351
2350
2350
2358
2357
2357
2357
2345
2335
2328
2315
2303
2294
2289
2278
2268
2256
2236
2219
2203
2182
2163
2148
2137
2119
2106
2091
2070
2056
2042
2027
2013
2008
2002
1991
1984
1971
1956
1945
1932
1917
1903
1893
1880
1863
1849
1827
1804
1785
1763
1740
1718
1705
1684
1662
1643
1616
1592
1572
1551
1532
1516
1511
1499
1490
1485
1468
1457
1450
1439
1430
1425
1423
1416
1410
1403
1388
1377
1365
1350
1336
1326
1318
1303
1291
1276
1254
1237
1220
1203
1187
1179
1172
1162
1158
1149
1139
1134
1130
1125
1121
1124
1125
1123
1124
1117
1108
1104
1095
1085
1077
1075
1066
1056
1048
1031
1017
1005
990
975
962
959
948
939
934
919
911
907
902
898
901
907
909
913
916
911
909
907
901
895
892
890
882
875
864
846
832
817
798
780
770
757
741
728
710
690
676
663
649
639
636
632
627
627
619
611
607
600
590
582
580
569
556
542
520
498
479
455
432
412
400
380
362
347
321
301
283
264
248
237
230
220
213
206
194
188
185
180
178
183
190
191
195
193
184
178
168
156
144
139
130
117
106
89
69
54
37
19
2
-7
-19
-31
-39
-55
-70
-79
-91
-101
-108
-107
-110
-113
-112
-119
-123
-124
-131
-138
-143
-142
-149
-156
-162
-178
-190
-201
-214
-227
-236
-242
-254
-263
-274
-292
-303
-313
-324
-332
-332
-330
-331
-327
-325
-327
-322
-317
-312
-305
-291
-279
-272
-263
-261
-261
-259
-259
-261
-263
-257
-255
-254
-250
-258
-264
-266
-273
-279
-281
-277
-277
-277
-274
-278
-281
-279
-279
-278
-272
-258
-251
-242
-232
-232
-227
-222
-220
-218
-213
-206
-206
-205
-206
-215
-220
-224
-232
-240
-243
-246
-253
-257
-264
-275
-278
-282
-285
-285
-275
-267
-260
-249
-242
-237
-227
-218
-210
-202
-186
-177
-170
-160
-161
-160
-156
-155
-156
-155
-147
-145
-144
-140
-146
-150
-151
-155
-157
-155
-145
-142
-136
-127
-125
-117
-106
-98
-88
-74
-58
-49
-39
-33
-35
-34
-34
-39
-43
-43
-44
-50
-52
-60
-73
-79
-87
-97
-104
-104
-104
-107
-106
-109
-112
-110
-109
-107
-104
-90
-79
-69
-54
-50
-43
-33
-25
-18
-8
7
17
26
38
40
44
51
53
55
62
76
83
91
98
100
107
116
124
133
149
170
186
206
224
237
257
278
296
316
342
368
388
412
429
442
458
471
482
493
509
522
531
541
546
549
557
561
565
570
585
595
605
619
623
631
641
649
655
664
679
687
694
702
696
693
689
679
669
661
657
646
636
626
608
595
583
568
555
546
541
530
522
512
496
486
477
468
460
461
463
462
467
468
466
470
472
472
473
480
485
486
489
487
482
481
476
470
463
467
463
458
456
443
432
424
414
403
396
395
388
382
380
367
360
358
351
347
346
349
345
343
339
328
320
312
301
289
283
279
268
260
248
230
217
202
185
168
158
146
131
120
103
85
73
60
47
39
38
36
32
32
25
17
12
4
-5
-14
-14
-22
-30
-36
-49
-60
-68
-79
-90
-100
-102
-111
-119
-125
-142
-154
-163
-173
-183
-187
-185
-187
-187
-186
-190
-190
-187
-187
-185
-178
-168
-164
-158
-156
-162
-163
-167
-174
-183
-186
-191
-202
-208
-222
-239
-251
-265
-280
-293
-299
-306
-315
-320
-329
-338
-340
-343
-345
-344
-332
-327
-323
-316
-318
-319
-318
-320
-324
-326
-322
-326
-331
-334
-350
-360
-369
-380
-392
-399
-403
-412
-418
-423
-434
-439
-440
-443
-443
-435
-423
-414
-401
-391
-386
-376
-366
-359
-353
-341
-332
-328
-322
-324
-330
-331
-335
-340
-345
-345
-346
-350
-350
-357
-364
-364
-367
-368
-366
-355
-350
-343
-334
-331
-323
-312
-303
-292
-279
-259
-248
-238
-228
-229
-226
-222
-221
-220
-215
-208
-206
-201
-199
-204
-206
-207
-211
-214
-211
-205
-203
-197
-193
-194
-189
-185
-184
-180
-167
-155
-145
-132
-124
-119
-111
-104
-99
-94
-84
-76
-71
-62
-63
-64
-61
-63
-65
-66
-60
-61
-63
-63
-70
-74
-75
-77
-78
-75
-62
-56
-48
-37
-34
-25
-14
-4
6
20
37
47
58
66
65
68
70
69
67
71
76
74
74
69
57
49
39
27
17
15
12
6
4
-2
-10
-13
-16
-18
-17
-9
-4
-1
7
3
0
0
-5
-11
-14
-12
-14
-15
-14
-20
-24
-23
-27
-30
-30
-21
-21
-19
-15
-19
-19
-17
-17
-17
-12
-6
-8
-11
-18
-36
-53
-75
-105
-139
-173
-212
-262
-314
-378
-453
-529
-613
-703
-799
-894
-999
-1115
-1236
-1369
-1507
-1643
-1780
-1917
-2051
-2177
-2305
-2435
-2560
-2699
-2841
-2984
-3137
-3297
-3461
-3626
-3802
-3983
-4166
-4365
-4568
-4774
-4989
-5205
-5417
-5616
-5816
-6003
-6176
-6343
-6492
-6626
-6746
-6845
-6919
-6963
-6986
-6975
-6936
-6873
-6776
-6649
-6498
-6320
-6112
-5878
-5625
-5343
-5038
-4707
-4341
-3949
-3534
-3096
-2634
-2162
-1685
-1200
-717
-236
245
716
1174
1618
2054
2469
2868
3258
3623
3976
4314
4627
4916
5179
5419
5623
5800
5952
6070
6166
6244
6300
6341
6373
6401
6409
6404
6384
6338
6279
6204
6111
6004
5891
5772
5638
5498
5347
5181
5013
4839
4658
4475
4298
4120
3937
3758
3576
3391
3214
3038
2863
2692
2530
2370
2209
2056
1901
1749
1605
1463
1325
1191
1072
950
831
720
603
494
393
294
200
114
40
-35
-104
-165
-230
-287
-335
-382
-424
-457
-479
-504
-524
-540
-561
-578
-593
-611
-627
-638
-646
-660
-671
-684
-703
-716
-729
-746
-761
-770
-778
-790
-799
-811
-825
-831
-836
-841
-843
-835
-829
-823
-814
-809
-804
-795
-788
-781
-774
-759
-752
-747
-740
-744
-747
-747
-751
-755
-757
-754
-757
-759
-758
-769
-776
-779
-788
-795
-798
-796
-799
-798
-797
-802
-802
-798
-796
-791
-780
-765
-756
-744
-735
-733
-728
-723
-722
-721
-714
-708
-707
-701
-702
-707
-707
-709
-712
-714
-710
-708
-709
-706
-709
-712
-711
-711
-710
-708
-694
-685
-676
-663
-658
-650
-639
-631
-623
-614
-599
-593
-588
-582
-588
-591
-592
-598
-603
-605
-602
-605
-606
-609
-618
-622
-625
-628
-630
-625
-616
-612
-604
-597
-596
-589
-583
-578
-572
-560
-550
-546
-537
-537
-540
-539
-541
-545
-549
-549
-550
-556
-558
-568
-580
-589
-603
-618
-632
-638
-651
-664
-674
-691
-705
-715
-726
-737
-745
-743
-748
-752
-751
-762
-768
-771
-778
-785
-788
-789
-797
-803
-812
-828
-840
-851
-866
-879
-887
-892
-903
-911
-921
-936
-944
-951
-958
-963
-958
-953
-951
-942
-940
-939
-933
-928
-924
-918
-907
-899
-896
-890
-894
-899
-900
-907
-915
-923
-922
-928
-936
-942
-957
-971
-983
-1001
-1019
-1035
-1042
-1056
-1067
-1075
-1092
-1102
-1108
-1116
-1124
-1126
-1126
-1131
-1135
-1141
-1155
-1165
-1175
-1189
-1203
-1212
-1219
-1234
-1246
-1262
-1283
-1299
-1314
-1332
-1348
-1356
-1366
-1380
-1390
-1407
-1425
-1438
-1451
-1465
-1475
-1480
-1485
-1491
-1493
-1502
-1511
-1516
-1524
-1532
-1538
-1536
-1542
-1548
-1553
-1566
-1578
-1587
-1601
-1615
-1627
-1631
-1643
-1653
-1661
-1681
-1694
-1705
-1718
-1729
-1735
-1737
-1743
-1746
-1748
-1755
-1756
-1755
-1757
-1757
-1753
-1747
-1747
-1745
-1748
-1756
-1760
-1765
-1772
-1780
-1781
-1785
-1794
-1801
-1815
-1833
-1846
-1862
-1879
-1895
-1905
-1918
-1933
-1942
-1960
-1975
-1983
-1993
-2002
-2006
-2000
-1998
-1995
-1988
-1989
-1987
-1981
-1979
-1976
-1971
-1958
-1954
-1949
-1942
-1946
-1946
-1945
-1948
-1951
-1951
-1949
-1952
-1952
-1954
-1963
-1966
-1968
-1971
-1971
-1964
-1953
-1945
-1932
-1920
-1910
-1893
-1875
-1856
-1836
-1808
-1782
-1759
-1734
-1713
-1695
-1671
-1648
-1626
-1603
-1573
-1546
-1522
-1494
-1476
-1459
-1437
-1419
-1400
-1377
-1346
-1318
-1289
-1254
-1227
-1194
-1155
-1117
-1075
-1029
-973
-924
-873
-821
-777
-729
-680
-635
-590
-541
-491
-447
-401
-358
-323
-285
-247
-212
-176
-136
-95
-59
-19
18
52
93
133
173
215
266
316
364
416
465
513
565
617
667
717
774
825
874
925
964
1004
1047
1085
1121
1159
1200
1235
1268
1302
1325
1350
1380
1406
1432
1463
1502
1534
1570
1606
1637
1672
1710
1747
1784
1825
1868
1905
1942
1977
2002
2030
2057
2080
2103
2132
2160
2181
2206
2225
2239
2257
2273
2287
2301
2322
2342
2359
2381
2398
2414
2435
2456
2478
2500
2531
2557
2580
2607
2622
2637
2652
2663
2671
2679
2690
2694
2697
2700
2693
2687
2684
2675
2667
2661
2661
2653
2646
2638
2623
2612
2603
2592
2583
2580
2581
2577
2577
2576
2569
2569
2569
2566
2564
2567
2570
2567
2566
2557
2543
2532
2518
2501
2486
2476
2464
2447
2433
2412
2389
2369
2346
2324
2303
2293
2279
2266
2258
2242
2229
2222
2213
2205
2201
2204
2199
2195
2193
2180
2169
2161
2148
2134
2124
2117
2103
2090
2074
2052
2034
2017
1998
1978
1964
1952
1933
1918
1900
1878
1862
1847
1832
1819
1815
1812
1805
1803
1794
1782
1775
1765
1752
1740
1734
1724
1711
1700
1683
1663
1646
1625
1603
1582
1570
1550
1530
1512
1484
1460
1439
1416
1394
1376
1366
1352
1341
1335
1319
1309
1303
1295
1288
1285
1287
1283
1279
1274
1260
1249
1238
1224
1209
1199
1190
1175
1161
1144
1120
1101
1080
1057
1035
1020
1004
984
969
948
925
909
892
876
864
859
853
845
841
830
817
807
793
777
761
754
739
723
709
685
662
641
617
593
571
556
534
513
496
466
443
424
403
384
371
364
353
346
340
329
324
321
317
314
317
323
322
324
322
313
309
302
292
282
278
273
263
257
245
230
222
213
205
200
202
204
205
211
211
209
213
215
216
220
233
238
241
245
239
234
230
222
213
206
205
196
189
183
166
155
146
132
119
110
105
95
88
81
68
62
58
52
49
52
58
60
65
66
62
64
65
62
59
62
62
56
54
45
33
25
17
7
0
-1
-4
-8
-10
-19
-28
-31
-37
-40
-40
-29
-23
-17
-7
-4
1
10
16
24
33
50
59
67
76
72
71
71
66
61
59
61
57
56
52
40
32
24
13
4
1
2
-1
1
0
-5
-2
1
4
10
24
37
46
58
65
69
77
84
88
92
101
107
110
116
111
105
104
97
90
84
87
82
78
76
69
64
65
63
64
69
83
91
102
114
117
125
135
140
145
154
164
169
174
178
173
173
172
168
165
167
172
171
173
171
163
160
156
151
148
156
161
165
173
176
177
183
189
194
201
215
225
233
245
246
246
250
249
246
244
247
244
239
235
222
212
205
194
184
176
177
169
164
160
148
141
137
132
129
132
139
142
148
153
151
153
155
152
151
155
159
158
159
156
146
141
133
124
114
113
108
99
92
80
64
53
40
27
15
12
6
1
1
-8
-13
-11
-11
-12
-9
0
3
6
11
6
4
3
-1
-6
-10
-7
-13
-18
-22
-35
-44
-52
-62
-71
-74
-73
-75
-73
-72
-77
-76
-72
-70
-67
-56
-44
-38
-30
-28
-33
-34
-39
-48
-59
-63
-71
-84
-95
-112
-131
-147
-164
-182
-200
-208
-222
-236
-245
-264
-279
-287
-298
-309
-316
-318
-326
-336
-346
-368
-390
-414
-447
-483
-522
-560
-611
-667
-729
-805
-883
-965
-1055
-1149
-1245
-1345
-1456
-1571
-1691
-1821
-1947
-2074
-2202
-2329
-2448
-2566
-2688
-2805
-2928
-3060
-3190
-3328
-3473
-3622
-3770
-3928
-4099
-4277
-4473
-4683
-4900
-5128
-5362
-5598
-5823
-6048
-6264
-6464
-6663
-6848
-7017
-7178
-7326
-7454
-7556
-7637
-7687
-7700
-7690
-7643
-7559
-7447
-7304
-7128
-6918
-6688
-6430
-6147
-5846
-5515
-5156
-4776
-4372
-3941
-3491
-3034
-2566
-2096
-1633
-1168
-712
-272
152
564
956
1326
1684
2021
2340
2649
2937
3201
3444
3669
3870
4046
4205
4340
4457
4566
4659
4740
4809
4879
4932
4975
5011
5027
5034
5034
5018
4992
4958
4921
4870
4811
4745
4657
4563
4461
4346
4225
4102
3979
3846
3711
3572
3424
3279
3133
2984
2837
2697
2562
2425
2295
2166
2035
1913
1794
1678
1566
1464
1365
1267
1176
1083
991
908
827
750
678
617
558
503
455
407
363
329
297
269
248
240
229
219
216
205
196
191
182
173
167
166
157
147
138
116
97
81
60
40
25
14
-2
-17
-33
-55
-73
-91
-110
-127
-137
-144
-154
-161
-169
-183
-190
-197
-207
-215
-217
-221
-230
-237
-251
-268
-280
-294
-309
-323
-330
-337
-346
-352
-362
-373
-380
-388
-396
-402
-398
-402
-404
-402
-408
-410
-407
-406
-404
-398
-384
-377
-367
-355
-355
-350
-343
-339
-335
-327
-316
-310
-304
-298
-300
-299
-299
-302
-304
-301
-297
-299
-298
-301
-309
-311
-313
-317
-318
-310
-301
-295
-283
-277
-273
-264
-257
-253
-249
-240
-234
-231
-226
-230
-235
-238
-245
-252
-259
-256
-260
-263
-265
-274
-282
-287
-295
-303
-307
-302
-304
-303
-299
-306
-307
-304
-303
-300
-293
-282
-277
-270
-265
-268
-267
-267
-270
-273
-270
-265
-267
-266
-269
-279
-284
-290
-299
-307
-307
-309
-315
-317
-326
-336
-342
-349
-357
-361
-359
-357
-355
-349
-351
-353
-351
-354
-357
-359
-354
-356
-360
-363
-376
-387
-399
-415
-433
-450
-459
-479
-498
-517
-548
-574
-598
-626
-652
-672
-689
-711
-731
-751
-778
-798
-817
-837
-856
-870
-882
-900
-915
-933
-958
-977
-998
-1021
-1043
-1057
-1073
-1094
-1113
-1139
-1167
-1191
-1216
-1244
-1269
-1286
-1304
-1323
-1336
-1356
-1374
-1386
-1399
-1411
-1419
-1418
-1422
-1425
-1426
-1435
-1442
-1447
-1458
-1470
-1483
-1488
-1503
-1517
-1530
-1553
-1570
-1586
-1604
-1622
-1635
-1646
-1663
-1677
-1692
-1712
-1726
-1738
-1750
-1760
-1763
-1764
-1770
-1771
-1776
-1786
-1790
-1796
-1805
-1815
-1819
-1829
-1844
-1859
-1881
-1906
-1929
-1955
-1982
-2009
-2028
-2050
-2074
-2093
-2122
-2149
-2171
-2197
-2221
-2240
-2250
-2264
-2276
-2283
-2295
-2303
-2307
-2313
-2316
-2317
-2308
-2308
-2306
-2304
-2312
-2315
-2319
-2326
-2334
-2339
-2341
-2349
-2355
-2363
-2378
-2390
-2401
-2415
-2428
-2435
-2440
-2449
-2453
-2458
-2467
-2468
-2469
-2469
-2466
-2453
-2441
-2433
-2420
-2412
-2407
-2396
-2387
-2379
-2371
-2356
-2346
-2340
-2330
-2332
-2332
-2329
-2329
-2330
-2327
-2318
-2313
-2308
-2301
-2301
-2298
-2290
-2283
-2274
-2258
-2232
-2212
-2187
-2158
-2136
-2106
-2074
-2043
-2011
-1974
-1933
-1898
-1861
-1825
-1797
-1764
-1730
-1699
-1668
-1629
-1590
-1555
-1516
-1480
-1448
-1409
-1371
-1333
-1294
-1246
-1200
-1156
-1107
-1063
-1020
-971
-923
-875
-825
-767
-713
-660
-603
-559
-513
-463
-417
-372
-325
-271
-223
-174
-123
-83
-40
7
50
94
141
196
244
295
345
390
438
489
539
590
648
710
768
830
891
945
1005
1064
1121
1177
1240
1302
1358
1417
1470
1517
1568
1616
1661
1706
1757
1805
1849
1894
1934
1971
2012
2049
2086
2124
2171
2213
2253
2299
2335
2375
2419
2460
2501
2545
2592
2633
2672
2711
2738
2767
2798
2822
2845
2871
2902
2923
2944
2963
2974
2987
2999
3008
3016
3028
3043
3051
3062
3071
3073
3081
3089
3095
3103
3119
3135
3145
3160
3169
3173
3181
3184
3184
3184
3189
3190
3185
3182
3172
3158
3146
3129
3111
3093
3082
3064
3045
3028
3001
2977
2958
2937
2917
2901
2893
2879
2868
2861
2844
2832
2824
2812
2801
2793
2790
2779
2767
2752
2728
2708
2686
2662
2637
2617
2599
2576
2555
2531
2501
2476
2451
2423
2396
2376
2358
2337
2321
2300
2278
2262
2247
2232
2221
2216
2210
2201
2195
2181
2165
2151
2133
2114
2095
2086
2069
2052
2037
2013
1991
1971
1948
1924
1901
1884
1858
1832
1808
1773
1742
1714
1682
1652
1626
1605
1579
1556
1534
1506
1484
1464
1442
1421
1406
1393
1373
1355
1334
1307
1285
1262
1236
1212
1195
1176
1153
1134
1107
1078
1054
1029
1004
982
968
955
940
929
913
898
888
877
868
860
861
855
847
841
824
808
794
775
756
740
730
713
697
683
657
637
618
594
571
552
535
513
493
473
446
426
407
386
369
358
351
341
334
325
311
301
291
279
268
263
257
246
237
221
203
188
172
155
139
130
120
107
99
85
72
65
56
49
47
55
59
65
75
79
86
96
104
114
125
143
152
162
174
172
175
178
176
173
173
175
171
169
166
156
150
145
136
129
129
131
129
132
132
129
132
136
140
145
159
171
180
193
198
200
206
211
213
215
222
224
223
226
219
211
207
200
192
186
188
182
176
173
162
155
152
148
148
151
165
171
181
193
197
205
215
221
226
235
245
249
254
256
251
250
247
241
236
236
237
231
229
221
209
203
197
189
183
187
189
188
193
192
192
198
203
208
215
228
237
242
251
248
245
244
238
231
226
227
220
213
208
194
183
174
162
151
142
143
136
132
130
119
114
110
105
100
101
106
106
110
112
107
106
105
101
97
98
100
95
95
91
83
79
75
68
63
65
65
61
60
52
44
40
37
33
31
37
41
45
54
54
57
65
71
77
86
100
108
114
121
117
116
117
111
106
103
108
103
99
95
81
71
61
49
38
31
28
22
20
17
7
5
5
4
5
15
28
36
48
56
59
68
74
78
84
96
105
110
117
117
116
118
118
116
113
119
118
115
116
108
102
101
95
87
80
76
63
47
28
-4
-41
-80
-130
-186
-244
-302
-374
-452
-538
-638
-739
-845
-958
-1076
-1194
-1315
-1447
-1583
-1727
-1882
-2034
-2187
-2341
-2492
-2635
-2773
-2914
-3052
-3198
-3352
-3505
-3665
-3831
-3998
-4162
-4331
-4507
-4685
-4873
-5069
-5265
-5464
-5662
-5855
-6032
-6205
-6364
-6504
-6637
-6748
-6837
-6910
-6963
-6990
-6986
-6959
-6900
-6806
-6691
-6540
-6358
-6153
-5922
-5662
-5368
-5052
-4705
-4328
-3927
-3495
-3036
-2558
-2062
-1551
-1031
-515
2
512
1006
1491
1957
2398
2820
3226
3612
3972
4318
4641
4942
5228
5488
5720
5926
6109
6264
6389
6490
6562
6610
6643
6655
6649
6628
6602
6554
6490
6414
6313
6201
6080
5945
5802
5653
5504
5342
5176
5006
4822
4637
4452
4259
4065
3873
3687
3494
3305
3118
2927
2744
2567
2393
2226
2070
1922
1773
1632
1494
1354
1225
1100
978
862
756
654
552
456
358
262
175
90
10
-64
-127
-188
-246
-297
-348
-396
-436
-472
-504
-530
-542
-557
-569
-575
-588
-596
-601
-607
-613
-617
-615
-620
-624
-626
-640
-651
-659
-672
-685
-694
-697
-707
-715
-725
-740
-750
-759
-770
-778
-779
-776
-776
-772
-769
-771
-766
-760
-756
-752
-742
-734
-731
-726
-728
-736
-739
-744
-752
-758
-760
-764
-771
-776
-785
-797
-804
-814
-824
-832
-829
-832
-833
-831
-837
-840
-839
-838
-835
-830
-817
-811
-805
-797
-802
-803
-803
-808
-814
-816
-816
-821
-824
-828
-839
-847
-855
-866
-876
-881
-884
-891
-896
-902
-913
-917
-922
-928
-932
-928
-924
-923
-918
-919
-922
-919
-917
-917
-916
-910
-907
-907
-905
-910
-918
-922
-931
-941
-951
-952
-960
-970
-979
-997
-1013
-1025
-1040
-1054
-1066
-1069
-1078
-1085
-1089
-1104
-1113
-1117
-1124
-1130
-1131
-1128
-1130
-1129
-1129
-1136
-1139
-1141
-1146
-1149
-1146
-1140
-1139
-1134
-1133
-1136
-1134
-1131
-1129
-1127
-1116
-1105
-1098
-1087
-1080
-1074
-1062
-1050
-1039
-1024
-1001
-979
-959
-934
-917
-902
-884
-871
-860
-849
-833
-826
-823
-820
-827
-833
-838
-846
-854
-860
-859
-868
-876
-882
-899
-910
-918
-928
-936
-937
-934
-934
-930
-926
-927
-923
-919
-919
-917
-911
-903
-903
-902
-905
-916
-922
-930
-942
-954
-960
-968
-982
-991
-1008
-1028
-1043
-1061
-1081
-1098
-1109
-1121
-1135
-1142
-1158
-1171
-1177
-1187
-1196
-1202
-1200
-1204
-1209
-1212
-1225
-1235
-1244
-1256
-1270
-1282
-1287
-1302
-1316
-1330
-1354
-1373
-1391
-1411
-1431
-1447
-1461
-1480
-1496
-1512
-1534
-1550
-1563
-1579
-1591
-1595
-1596
-1601
-1602
-1607
-1615
-1618
-1621
-1626
-1630
-1626
-1625
-1629
-1631
-1641
-1654
-1663
-1674
-1687
-1700
-1707
-1717
-1730
-1739
-1758
-1777
-1791
-1809
-1826
-1841
-1847
-1859
-1869
-1875
-1887
-1895
-1899
-1905
-1910
-1911
-1903
-1902
-1901
-1897
-1903
-1905
-1906
-1909
-1912
-1911
-1908
-1911
-1912
-1914
-1923
-1927
-1931
-1938
-1943
-1942
-1940
-1943
-1941
-1942
-1946
-1943
-1939
-1934
-1926
-1908
-1891
-1876
-1856
-1841
-1828
-1811
-1795
-1782
-1768
-1748
-1733
-1720
-1704
-1699
-1695
-1687
-1683
-1679
-1672
-1658
-1650
-1642
-1631
-1627
-1619
-1607
-1598
-1587
-1572
-1548
-1531
-1510
-1487
-1470
-1448
-1423
-1400
-1375
-1346
-1315
-1289
-1261
-1234
-1213
-1188
-1162
-1139
-1114
-1083
-1051
-1022
-990
-961
-936
-905
-875
-846
-814
-773
-733
-695
-653
-615
-578
-536
-494
-452
-409
-356
-307
-260
-210
-171
-131
-88
-48
-8
35
83
126
169
215
252
291
334
373
412
455
505
547
593
639
678
722
768
811
856
905
959
1007
1060
1112
1157
1209
1260
1309
1358
1412
1465
1512
1561
1605
1643
1686
1727
1765
1804
1849
1891
1929
1969
2001
2031
2063
2092
2121
2150
2187
2218
2247
2280
2301
2325
2351
2375
2398
2424
2454
2479
2503
2528
2543
2560
2579
2593
2607
2624
2646
2660
2674
2687
2693
2701
2708
2712
2716
2724
2733
2736
2742
2745
2742
2743
2744
2744
2746
2756
2766
2771
2780
2783
2780
2781
2779
2773
2766
2763
2755
2742
2730
2711
2688
2668
2646
2622
2597
2581
2557
2532
2510
2479
2451
2428
2402
2378
2359
2346
2329
2313
2302
2280
2264
2253
2238
2225
2217
2214
2203
2193
2180
2160
2142
2124
2103
2081
2062
2047
2025
2005
1983
1953
1927
1901
1873
1846
1827
1809
1787
1771
1750
1727
1711
1695
1677
1663
1654
1644
1631
1620
1604
1586
1571
1552
1531
1509
1495
1473
1449
1427
1395
1365
1338
1309
1278
1250
1229
1201
1175
1153
1122
1097
1077
1055
1037
1025
1019
1009
1002
995
982
973
964
953
941
934
929
917
908
896
878
864
849
831
813
803
791
775
762
742
720
704
687
672
659
655
651
646
645
640
635
635
632
629
627
633
631
628
626
616
606
598
585
571
557
551
537
525
515
494
478
465
449
434
425
419
409
401
393
379
371
365
360
357
361
367
366
368
365
355
348
339
326
311
301
286
262
236
198
149
98
38
-31
-106
-182
-267
-361
-457
-564
-676
-787
-907
-1030
-1157
-1277
-1407
-1540
-1672
-1813
-1953
-2090
-2228
-2365
-2499
-2627
-2767
-2910
-3056
-3218
-3383
-3556
-3741
-3933
-4127
-4327
-4542
-4765
-4998
-5241
-5482
-5720
-5958
-6188
-6403
-6605
-6798
-6971
-7125
-7260
-7361
-7429
-7464
-7461
-7411
-7322
-7197
-7032
-6835
-6600
-6318
-5999
-5647
-5260
-4841
-4401
-3945
-3468
-2982
-2477
-1949
-1405
-847
-276
308
886
1457
2019
2561
3090
3607
4105
4592
5069
5542
5992
6427
6846
7234
7604
7950
8266
8551
8809
9036
9226
9387
9513
9599
9654
9675
9658
9610
9536
9433
9294
9131
8937
8715
8479
8225
7954
7673
7390
7099
6799
6500
6194
5886
5585
5285
4989
4700
4421
4146
3876
3618
3357
3107
2870
2639
2417
2207
2012
1821
1639
1469
1301
1143
998
859
730
613
513
412
322
239
154
78
10
-57
-119
-173
-220
-270
-315
-360
-411
-455
-497
-541
-584
-619
-651
-686
-714
-744
-776
-801
-823
-845
-863
-872
-881
-893
-899
-910
-922
-930
-938
-946
-953
-954
-960
-968
-973
-990
-1006
-1019
-1036
-1054
-1071
-1083
-1099
-1116
-1131
-1153
-1172
-1186
-1203
-1216
-1226
-1226
-1233
-1239
-1243
-1256
-1265
-1273
-1284
-1294
-1300
-1303
-1311
-1317
-1324
-1337
-1346
-1354
-1364
-1374
-1377
-1379
-1385
-1388
-1395
-1405
-1410
-1415
-1421
-1424
-1418
-1414
-1412
-1407
-1407
-1408
-1404
-1401
-1400
-1399
-1390
-1386
-1384
-1378
-1383
-1387
-1386
-1390
-1394
-1395
-1390
-1391
-1392
-1390
-1397
-1401
-1401
-1404
-1406
-1404
-1394
-1393
-1390
-1387
-1390
-1389
-1386
-1384
-1381
-1373
-1363
-1359
-1353
-1350
-1355
-1354
-1354
-1357
-1359
-1354
-1347
-1345
-1339
-1337
-1339
-1334
-1330
-1327
-1323
-1311
-1301
-1295
-1286
-1282
-1280
-1273
-1268
-1264
-1261
-1250
-1245
-1242
-1236
-1242
-1247
-1249
-1255
-1264
-1271
-1273
-1280
-1288
-1293
-1307
-1319
-1326
-1336
-1345
-1349
-1346
-1348
-1349
-1348
-1354
-1356
-1356
-1358
-1358
-1354
-1345
-1343
-1337
-1334
-1338
-1337
-1337
-1340
-1343
-1341
-1339
-1344
-1345
-1352
-1364
-1371
-1378
-1387
-1394
-1393
-1393
-1393
-1390
-1389
-1390
-1386
-1383
-1381
-1379
-1367
-1362
-1358
-1350
-1354
-1357
-1357
-1361
-1367
-1371
-1369
-1374
-1380
-1383
-1398
-1410
-1420
-1433
-1446
-1454
-1456
-1464
-1471
-1478
-1489
-1494
-1497
-1501
-1502
-1497
-1490
-1489
-1485
-1484
-1490
-1491
-1493
-1499
-1503
-1501
-1500
-1504
-1505
-1512
-1524
-1531
-1540
-1552
-1562
-1567
-1573
-1582
-1588
-1598
-1609
-1614
-1621
-1627
-1630
-1623
-1620
-1618
-1610
-1612
-1611
-1607
-1605
-1604
-1601
-1592
-1591
-1590
-1586
-1594
-1600
-1603
-1613
-1623
-1631
-1635
-1646
-1657
-1669
-1687
-1701
-1712
-1724
-1735
-1739
-1739
-1742
-1741
-1740
-1744
-1740
-1735
-1731
-1726
-1714
-1702
-1695
-1685
-1682
-1683
-1680
-1680
-1682
-1683
-1679
-1677
-1678
-1677
-1683
-1691
-1696
-1705
-1713
-1721
-1717
-1718
-1719
-1714
-1717
-1717
-1711
-1707
-1700
-1689
-1671
-1658
-1645
-1628
-1622
-1613
-1601
-1594
-1588
-1578
-1565
-1559
-1552
-1546
-1547
-1544
-1542
-1542
-1542
-1536
-1529
-1528
-1523
-1519
-1520
-1515
-1508
-1502
-1492
-1473
-1454
-1438
-1417
-1401
-1389
-1372
-1356
-1342
-1326
-1305
-1285
-1268
-1249
-1237
-1228
-1214
-1203
-1192
-1178
-1154
-1137
-1119
-1098
-1085
-1069
-1049
-1029
-1007
-980
-944
-912
-877
-836
-804
-765
-723
-683
-640
-593
-542
-497
-452
-408
-372
-333
-295
-260
-227
-189
-149
-116
-80
-48
-23
8
36
62
88
122
155
185
220
250
280
317
354
393
435
485
535
585
638
683
727
775
818
862
907
960
1004
1047
1092
1128
1166
1206
1243
1280
1318
1364
1400
1436
1474
1500
1531
1563
1591
1620
1653
1688
1718
1751
1783
1808
1838
1868
1894
1919
1948
1977
1999
2023
2043
2055
2072
2086
2098
2109
2128
2144
2155
2170
2177
2182
2191
2197
2202
2208
2221
2232
2241
2255
2260
2267
2277
2284
2291
2300
2316
2325
2333
2342
2342
2343
2347
2346
2344
2344
2353
2351
2350
2349
2336
2328
2321
2310
2299
2292
2286
2276
2268
2259
2244
2235
2229
2221
2215
2216
2221
2220
2224
2226
2222
2223
2223
2219
2215
2217
2216
2211
2207
2196
2183
2173
2161
2146
2131
2123
2112
2098
2088
2069
2051
2037
2020
2003
1989
1983
1971
1961
1954
1941
1931
1926
1918
1912
1907
1911
1906
1902
1899
1885
1875
1866
1854
1842
1833
1826
1813
1801
1787
1766
1749
1731
1710
1690
1675
1663
1646
1632
1616
1595
1580
1565
1550
1536
1531
1526
1517
1512
1500
1486
1476
1463
1448
1434
1426
1412
1397
1385
1362
1341
1323
1302
1281
1263
1251
1233
1215
1201
1179
1162
1150
1136
1124
1117
1121
1118
1118
1119
1113
1112
1113
1111
1109
1110
1113
1110
1109
1105
1093
1085
1077
1065
1055
1050
1046
1036
1029
1016
999
987
973
958
945
939
932
923
916
906
895
890
884
878
874
878
877
876
879
870
863
859
850
840
832
828
818
805
795
775
757
743
724
706
691
684
670
659
650
636
628
624
618
616
620
628
633
642
650
652
658
665
667
670
678
685
686
688
685
676
672
665
656
647
645
640
631
625
614
601
592
581
571
563
565
563
562
565
560
558
561
562
563
566
574
577
579
583
576
570
567
559
550
545
545
539
533
528
516
509
501
491
482
478
478
473
471
469
462
461
461
461
463
472
482
486
495
499
498
503
505
504
503
506
507
503
501
492
480
472
462
452
442
442
436
428
426
414
407
404
399
397
398
406
409
414
421
419
419
422
420
419
420
426
424
423
420
410
404
397
388
378
373
372
364
359
352
338
328
318
307
297
295
294
291
292
289
285
288
291
293
298
310
319
325
332
333
330
330
325
319
311
312
304
294
286
268
251
236
218
199
183
173
158
144
134
113
99
89
77
69
67
70
69
71
72
66
64
62
55
49
46
46
38
34
26
13
4
-5
-15
-25
-28
-31
-39
-42
-51
-63
-68
-73
-79
-81
-75
-70
-66
-58
-54
-50
-40
-34
-27
-20
-5
2
7
13
9
6
5
1
-4
-8
-7
-13
-18
-20
-34
-43
-47
-55
-62
-63
-59
-60
-59
-58
-63
-63
-62
-64
-64
-57
-48
-44
-38
-36
-41
-42
-44
-50
-58
-60
-65
-75
-82
-96
-113
-126
-140
-156
-169
-176
-183
-191
-193
-200
-204
-202
-201
-200
-196
-183
-176
-169
-159
-158
-155
-150
-148
-147
-144
-134
-133
-132
-130
-139
-143
-146
-151
-154
-154
-150
-152
-152
-153
-161
-165
-168
-172
-176
-173
-167
-165
-159
-155
-156
-150
-145
-139
-132
-117
-104
-94
-81
-75
-73
-67
-64
-65
-65
-61
-59
-61
-59
-66
-73
-75
-82
-89
-94
-90
-92
-94
-92
-96
-97
-93
-91
-86
-78
-60
-49
-37
-22
-18
-10
0
7
13
22
32
36
40
42
37
35
33
28
24
24
26
20
17
9
-4
-12
-19
-27
-33
-29
-25
-23
-16
-15
-15
-10
-6
-3
2
13
22
27
36
35
33
34
30
24
20
23
19
15
13
4
-5
-11
-21
-29
-34
-29
-32
-31
-27
-31
-28
-21
-16
-9
3
18
28
39
48
50
55
60
60
61
66
73
74
78
78
73
74
73
72
71
78
83
84
89
88
85
87
87
88
91
102
110
117
130
132
135
141
144
146
149
159
162
164
168
163
160
158
152
147
144
149
145
142
140
129
122
117
111
107
109
115
116
120
125
124
129
135
140
147
159
172
179
190
195
194
198
200
200
199
206
209
208
208
203
194
189
182
173
166
165
161
157
158
150
143
142
138
137
138
147
152
157
165
163
164
167
164
161
159
163
158
153
147
130
118
106
91
76
66
59
47
37
27
9
-2
-11
-21
-29
-30
-28
-31
-29
-31
-36
-35
-36
-38
-40
-35
-33
-35
-33
-38
-45
-47
-51
-56
-61
-56
-58
-61
-60
-72
-83
-90
-100
-109
-115
-114
-117
-120
-120
-128
-132
-132
-135
-137
-134
-124
-121
-117
-113
-118
-120
-123
-128
-132
-132
-129
-132
-132
-134
-143
-148
-154
-164
-174
-179
-183
-193
-198
-208
-222
-230
-238
-246
-251
-247
-244
-242
-236
-232
-230
-223
-218
-214
-212
-202
-200
-202
-200
-210
-218
-222
-230
-237
-242
-240
-244
-246
-245
-254
-259
-259
-261
-261
-255
-241
-233
-222
-209
-202
-189
-175
-162
-147
-129
-107
-92
-74
-60
-53
-42
-33
-27
-20
-7
6
14
26
32
32
37
39
39
39
46
51
53
59
62
62
68
71
75
79
94
102
110
121
122
125
131
133
133
134
140
137
134
134
122
114
109
99
90
84
82
73
67
61
49
43
39
34
30
31
36
37
41
43
37
35
30
18
3
-10
-29
-60
-94
-142
-200
-261
-331
-409
-492
-577
-669
-771
-876
-990
-1112
-1235
-1366
-1502
-1640
-1771
-1909
-2047
-2180
-2317
-2448
-2575
-2702
-2827
-2950
-3067
-3194
-3326
-3462
-3617
-3776
-3939
-4114
-4293
-4473
-4653
-4845
-5041
-5243
-5452
-5656
-5855
-6048
-6229
-6391
-6536
-6671
-6787
-6891
-6983
-7048
-7088
-7103
-7085
-7029
-6941
-6828
-6681
-6514
-6327
-6115
-5885
-5638
-5371
-5079
-4767
-4436
-4078
-3704
-3310
-2893
-2466
-2028
-1580
-1117
-657
-196
263
706
1139
1559
1960
2349
2728
3106
3466
3815
4153
4460
4749
5016
5254
5464
5651
5817
5953
6069
6166
6238
6301
6352
6388
6414
6434
6442
6428
6399
6348
6273
6187
6084
5967
5839
5706
5561
5401
5238
5061
4877
4695
4509
4321
4134
3953
3771
3587
3407
3222
3037
2859
2680
2504
2333
2176
2015
1859
1710
1558
1414
1278
1145
1018
899
794
685
584
490
392
304
224
147
77
18
-33
-83
-124
-161
-199
-230
-256
-284
-308
-325
-338
-356
-370
-387
-408
-423
-438
-455
-472
-481
-493
-508
-520
-539
-561
-577
-593
-608
-620
-624
-629
-636
-638
-647
-655
-658
-664
-668
-669
-661
-659
-659
-656
-663
-669
-674
-683
-693
-700
-699
-708
-715
-720
-736
-747
-756
-767
-777
-783
-784
-789
-791
-791
-798
-798
-795
-793
-789
-778
-762
-752
-738
-730
-727
-720
-715
-715
-715
-710
-708
-712
-713
-721
-731
-738
-745
-755
-762
-765
-770
-778
-782
-794
-806
-811
-820
-827
-831
-826
-826
-825
-822
-825
-826
-823
-823
-821
-817
-805
-801
-796
-791
-797
-800
-802
-807
-812
-813
-811
-815
-816
-819
-830
-837
-845
-856
-865
-868
-868
-872
-871
-872
-877
-875
-872
-869
-865
-852
-841
-833
-823
-819
-818
-814
-813
-814
-815
-811
-812
-815
-816
-828
-839
-846
-857
-868
-878
-881
-890
-900
-907
-921
-932
-938
-947
-954
-957
-950
-950
-947
-942
-944
-942
-940
-940
-940
-937
-933
-935
-937
-941
-955
-966
-978
-994
-1009
-1018
-1027
-1040
-1051
-1068
-1089
-1106
-1123
-1140
-1156
-1163
-1170
-1180
-1186
-1196
-1208
-1215
-1223
-1231
-1239
-1240
-1247
-1256
-1262
-1280
-1296
-1309
-1327
-1346
-1363
-1374
-1392
-1409
-1425
-1450
-1472
-1491
-1514
-1536
-1555
-1565
-1583
-1597
-1610
-1629
-1641
-1651
-1661
-1668
-1669
-1666
-1668
-1666
-1666
-1673
-1675
-1678
-1683
-1687
-1685
-1683
-1688
-1690
-1696
-1708
-1715
-1724
-1733
-1741
-1741
-1743
-1749
-1752
-1759
-1767
-1770
-1774
-1776
-1778
-1770
-1766
-1761
-1751
-1752
-1749
-1743
-1740
-1737
-1733
-1724
-1722
-1721
-1718
-1727
-1734
-1739
-1749
-1759
-1767
-1768
-1777
-1784
-1791
-1804
-1814
-1822
-1832
-1840
-1843
-1841
-1844
-1843
-1842
-1847
-1843
-1838
-1833
-1826
-1813
-1798
-1788
-1776
-1770
-1769
-1764
-1762
-1762
-1761
-1754
-1750
-1750
-1747
-1749
-1754
-1755
-1759
-1763
-1766
-1761
-1761
-1761
-1757
-1763
-1766
-1764
-1764
-1762
-1757
-1744
-1736
-1727
-1714
-1711
-1704
-1695
-1690
-1685
-1676
-1663
-1657
-1651
-1645
-1646
-1643
-1639
-1636
-1633
-1624
-1612
-1605
-1594
-1585
-1582
-1573
-1562
-1554
-1543
-1523
-1501
-1482
-1456
-1433
-1411
-1382
-1353
-1323
-1291
-1251
-1213
-1179
-1143
-1114
-1087
-1058
-1033
-1010
-988
-957
-934
-913
-890
-877
-863
-846
-831
-816
-798
-773
-753
-730
-703
-685
-660
-629
-600
-568
-528
-482
-441
-398
-355
-318
-277
-236
-198
-161
-120
-77
-41
-3
32
60
94
128
158
190
228
265
296
331
360
387
420
453
485
522
565
608
650
695
736
777
822
865
908
951
1004
1048
1090
1134
1166
1199
1232
1263
1293
1323
1360
1389
1420
1453
1475
1501
1529
1555
1581
1613
1649
1681
1715
1750
1778
1812
1847
1881
1916
1957
2001
2038
2078
2113
2140
2171
2200
2225
2249
2279
2306
2327
2350
2365
2376
2390
2402
2410
2418
2431
2441
2449
2460
2464
2467
2475
2479
2485
2492
2509
2519
2528
2540
2542
2546
2551
2551
2550
2549
2553
2548
2541
2535
2514
2496
2479
2457
2434
2415
2398
2376
2354
2331
2300
2274
2248
2220
2194
2174
2158
2138
2123
2107
2087
2074
2061
2047
2035
2030
2023
2012
2005
1990
1972
1959
1942
1923
1905
1892
1876
1858
1843
1820
1797
1779
1757
1735
1716
1707
1692
1678
1668
1651
1638
1630
1620
1612
1607
1611
1608
1606
1606
1596
1590
1584
1574
1565
1558
1554
1544
1536
1526
1507
1493
1479
1461
1445
1433
1424
1408
1396
1381
1361
1348
1334
1321
1309
1306
1302
1297
1297
1291
1284
1282
1279
1275
1271
1273
1272
1267
1266
1255
1243
1235
1222
1208
1193
1185
1169
1153
1139
1116
1096
1080
1061
1044
1030
1026
1015
1006
1000
985
977
972
967
963
965
970
971
974
974
966
963
960
953
946
945
944
937
933
923
908
897
885
871
858
852
845
834
829
819
808
803
798
792
790
795
799
802
810
808
805
807
804
799
796
798
793
787
783
770
759
751
739
727
717
715
703
692
682
661
645
630
613
596
585
577
565
557
550
537
531
527
522
519
523
527
526
528
526
518
514
509
503
497
498
497
491
488
478
465
455
442
427
412
404
391
377
368
348
331
320
307
295
287
286
282
277
273
260
249
239
224
209
196
192
178
166
154
134
118
105
88
72
60
51
36
24
11
-9
-23
-35
-49
-61
-66
-68
-74
-76
-81
-91
-96
-103
-115
-128
-140
-160
-190
-225
-273
-333
-399
-478
-568
-667
-766
-877
-998
-1121
-1262
-1408
-1556
-1713
-1875
-2036
-2194
-2360
-2527
-2691
-2863
-3030
-3191
-3355
-3520
-3684
-3845
-4019
-4195
-4376
-4570
-4766
-4968
-5180
-5398
-5615
-5830
-6048
-6257
-6457
-6652
-6830
-6995
-7147
-7281
-7390
-7474
-7535
-7560
-7555
-7516
-7433
-7314
-7157
-6964
-6728
-6459
-6157
-5819
-5457
-5070
-4656
-4222
-3768
-3298
-2806
-2310
-1808
-1296
-787
-271
251
768
1278
1780
2278
2757
3226
3687
4128
4566
5001
5427
5846
6258
6663
7046
7413
7759
8073
8360
8617
8836
9019
9169
9283
9352
9386
9381
9334
9259
9150
9006
8833
8638
8419
8175
7917
7638
7342
7041
6730
6414
6096
5784
5470
5156
4848
4540
4235
3939
3650
3369
3097
2843
2592
2351
2124
1897
1682
1480
1285
1101
929
772
620
477
346
212
90
-21
-127
-226
-314
-390
-468
-539
-606
-676
-738
-795
-852
-904
-947
-984
-1022
-1053
-1084
-1117
-1142
-1164
-1186
-1204
-1213
-1220
-1230
-1233
-1240
-1249
-1251
-1254
-1257
-1258
-1253
-1250
-1249
-1247
-1251
-1259
-1263
-1272
-1282
-1292
-1292
-1300
-1309
-1314
-1327
-1336
-1341
-1347
-1351
-1352
-1344
-1341
-1334
-1323
-1323
-1318
-1310
-1305
-1298
-1285
-1268
-1256
-1245
-1234
-1232
-1226
-1221
-1221
-1222
-1219
-1214
-1216
-1214
-1216
-1224
-1228
-1231
-1237
-1241
-1237
-1232
-1229
-1220
-1217
-1216
-1208
-1201
-1194
-1185
-1170
-1156
-1144
-1129
-1120
-1112
-1101
-1095
-1089
-1084
-1070
-1066
-1063
-1060
-1067
-1073
-1077
-1084
-1090
-1095
-1093
-1097
-1099
-1097
-1104
-1104
-1099
-1097
-1092
-1082
-1068
-1060
-1051
-1043
-1041
-1036
-1029
-1025
-1020
-1010
-1000
-996
-990
-990
-997
-1002
-1010
-1021
-1032
-1037
-1044
-1055
-1061
-1074
-1090
-1100
-1111
-1122
-1128
-1128
-1127
-1128
-1123
-1124
-1126
-1122
-1122
-1121
-1119
-1107
-1103
-1100
-1094
-1098
-1101
-1102
-1107
-1114
-1120
-1120
-1128
-1135
-1140
-1157
-1168
-1177
-1188
-1198
-1202
-1201
-1204
-1204
-1203
-1207
-1205
-1201
-1200
-1198
-1189
-1178
-1174
-1167
-1164
-1167
-1164
-1162
-1162
-1163
-1157
-1154
-1157
-1157
-1166
-1179
-1188
-1199
-1212
-1222
-1225
-1229
-1234
-1233
-1238
-1242
-1239
-1238
-1235
-1228
-1212
-1201
-1191
-1178
-1173
-1167
-1159
-1156
-1153
-1150
-1139
-1138
-1136
-1133
-1142
-1148
-1155
-1166
-1179
-1189
-1197
-1210
-1220
-1231
-1247
-1257
-1265
-1274
-1279
-1276
-1270
-1269
-1263
-1259
-1260
-1256
-1252
-1252
-1251
-1245
-1243
-1247
-1250
-1262
-1279
-1293
-1310
-1331
-1352
-1370
-1392
-1419
-1443
-1477
-1511
-1539
-1572
-1603
-1631
-1650
-1672
-1693
-1710
-1734
-1754
-1771
-1792
-1810
-1827
-1833
-1849
-1863
-1875
-1898
-1917
-1935
-1956
-1979
-1998
-2015
-2037
-2058
-2079
-2109
-2134
-2160
-2188
-2214
-2234
-2252
-2273
-2290
-2309
-2331
-2345
-2357
-2368
-2376
-2375
-2374
-2377
-2376
-2379
-2385
-2386
-2389
-2393
-2396
-2392
-2393
-2397
-2397
-2410
-2423
-2431
-2444
-2458
-2470
-2475
-2485
-2495
-2502
-2516
-2526
-2531
-2538
-2541
-2539
-2526
-2519
-2508
-2494
-2489
-2478
-2466
-2455
-2444
-2428
-2409
-2397
-2383
-2371
-2367
-2359
-2353
-2349
-2345
-2335
-2323
-2317
-2307
-2301
-2300
-2292
-2284
-2277
-2267
-2247
-2226
-2206
-2180
-2156
-2132
-2101
-2069
-2036
-2000
-1956
-1916
-1878
-1837
-1807
-1776
-1742
-1711
-1680
-1648
-1612
-1580
-1550
-1516
-1491
-1464
-1433
-1405
-1376
-1342
-1299
-1263
-1224
-1182
-1146
-1104
-1057
-1011
-960
-903
-841
-784
-724
-667
-617
-563
-509
-459
-408
-352
-296
-246
-192
-144
-100
-52
-4
43
91
147
200
251
305
355
404
459
513
568
624
689
751
813
880
938
999
1066
1129
1192
1257
1328
1391
1454
1517
1570
1624
1681
1732
1783
1836
1895
1946
1997
2047
2088
2132
2176
2216
2258
2303
2351
2393
2438
2480
2514
2552
2591
2627
2664
2707
2750
2787
2827
2861
2888
2919
2946
2970
2994
3024
3049
3070
3091
3106
3119
3133
3143
3151
3157
3170
3177
3183
3193
3192
3194
3199
3202
3205
3212
3225
3233
3241
3252
3253
3256
3263
3264
3265
3269
3277
3276
3274
3271
3260
3252
3243
3230
3216
3206
3199
3185
3172
3156
3132
3114
3095
3074
3055
3044
3034
3022
3015
3003
2989
2982
2974
2965
2957
2957
2955
2949
2946
2938
2927
2920
2910
2899
2887
2885
2876
2865
2858
2840
2822
2807
2788
2768
2752
2743
2730
2719
2713
2698
2689
2684
2677
2672
2673
2680
2681
2684
2687
2684
2685
2686
2684
2682
2683
2685
2678
2672
2661
2642
2627
2610
2589
2567
2551
2532
2506
2483
2453
2420
2392
2364
2335
2308
2288
2267
2243
2223
2197
2169
2144
2116
2088
2061
2044
2019
1994
1971
1939
1908
1879
1846
1812
1779
1751
1717
1681
1648
1602
1560
1521
1479
1439
1404
1374
1342
1314
1288
1259
1237
1220
1202
1186
1177
1172
1162
1155
1146
1130
1120
1109
1095
1081
1074
1064
1049
1037
1019
996
979
959
937
916
900
883
863
848
826
804
787
768
751
737
735
726
717
713
700
691
684
675
665
656
655
646
638
632
614
599
585
567
549
536
526
511
499
486
467
453
440
428
418
415
416
412
414
414
410
412
415
417
419
429
436
438
443
441
435
433
428
421
414
411
405
395
388
372
355
342
326
311
298
295
287
278
274
263
256
254
250
249
251
262
266
272
279
275
274
273
268
263
260
260
254
250
244
230
221
212
200
189
183
181
173
169
164
154
150
147
144
142
148
153
155
162
162
162
166
169
170
173
181
185
186
188
180
171
166
156
146
137
136
128
119
112
96
82
70
56
43
34
35
29
24
22
11
6
4
1
-1
2
8
8
9
9
1
-4
-10
-20
-29
-33
-35
-42
-46
-53
-65
-72
-80
-90
-99
-99
-100
-105
-105
-109
-114
-114
-114
-114
-112
-102
-95
-89
-79
-78
-76
-69
-65
-62
-57
-45
-41
-38
-33
-37
-39
-38
-41
-44
-46
-39
-42
-45
-47
-59
-65
-70
-75
-78
-76
-68
-64
-55
-47
-45
-38
-28
-21
-11
4
21
33
49
59
65
75
82
87
92
104
113
119
127
129
128
132
135
137
141
153
163
172
187
194
203
218
231
245
263
287
307
326
347
359
372
386
394
401
409
423
426
429
432
425
421
418
412
407
406
407
403
402
398
388
383
380
374
371
375
381
382
388
389
386
387
387
384
380
383
381
374
368
355
338
323
305
285
266
254
236
217
203
176
151
131
107
84
64
51
36
23
14
-1
-12
-18
-26
-31
-34
-28
-29
-29
-29
-37
-41
-45
-52
-59
-62
-63
-70
-76
-84
-99
-108
-117
-128
-137
-140
-141
-147
-148
-153
-162
-165
-168
-170
-170
-161
-153
-147
-137
-132
-129
-123
-119
-117
-117
-109
-108
-110
-109
-119
-129
-136
-146
-155
-162
-163
-169
-174
-177
-189
-196
-198
-203
-205
-202
-191
-186
-178
-168
-164
-156
-145
-138
-130
-118
-103
-95
-86
-80
-83
-82
-82
-84
-87
-83
-77
-76
-69
-66
-67
-63
-60
-59
-56
-45
-35
-28
-17
-11
-6
4
12
21
31
51
64
76
92
96
100
108
112
115
120
131
135
140
147
142
140
140
136
131
131
135
133
133
133
129
130
134
136
140
150
164
174
188
201
208
220
232
240
247
259
270
275
281
279
272
269
264
257
251
251
248
241
236
226
213
205
196
186
179
183
181
180
184
181
181
187
191
195
202
214
219
223
229
222
217
215
206
197
191
189
181
174
166
152
141
130
116
104
97
94
87
85
81
73
71
70
67
66
72
78
81
88
89
87
90
90
88
87
90
90
88
87
81
72
67
59
51
44
45
37
28
23
8
-3
-10
-18
-23
-24
-17
-14
-9
1
-1
3
10
13
15
21
30
32
34
35
28
25
21
14
7
5
5
0
-3
-7
-17
-21
-25
-30
-34
-30
-24
-21
-12
-7
-4
6
15
24
37
56
73
88
107
119
129
143
152
161
170
189
200
211
224
229
236
246
253
261
269
285
292
301
313
315
322
334
343
354
370
390
404
419
433
439
448
456
459
462
469
477
477
476
470
454
440
423
401
377
360
340
315
293
263
230
202
173
145
119
99
77
55
37
13
-11
-29
-50
-70
-89
-100
-117
-136
-153
-179
-203
-224
-247
-270
-291
-303
-324
-344
-359
-385
-406
-423
-442
-460
-473
-481
-493
-501
-509
-521
-527
-530
-533
-534
-527
-517
-511
-503
-499
-501
-498
-497
-499
-500
-494
-490
-490
-487
-490
-497
-501
-506
-512
-517
-517
-519
-524
-524
-533
-542
-545
-552
-557
-559
-552
-550
-548
-542
-542
-539
-533
-530
-525
-519
-504
-498
-490
-480
-480
-474
-467
-463
-459
-450
-438
-431
-422
-414
-414
-408
-401
-396
-390
-377
-362
-352
-339
-329
-324
-313
-302
-294
-288
-277
-272
-276
-282
-301
-330
-361
-402
-452
-506
-562
-628
-704
-783
-879
-980
-1082
-1195
-1313
-1436
-1556
-1685
-1815
-1944
-2079
-2208
-2332
-2458
-2582
-2702
-2811
-2930
-3051
-3175
-3316
-3459
-3610
-3771
-3939
-4110
-4283
-4467
-4656
-4854
-5065
-5273
-5482
-5691
-5893
-6077
-6246
-6406
-6547
-6675
-6792
-6883
-6954
-7001
-7019
-7000
-6953
-6877
-6767
-6632
-6472
-6282
-6069
-5837
-5583
-5303
-5005
-4686
-4338
-3977
-3591
-3178
-2749
-2304
-1845
-1372
-899
-421
58
525
986
1437
1868
2284
2690
3094
3479
3854
4216
4553
4874
5172
5441
5683
5902
6097
6259
6400
6518
6610
6687
6750
6796
6829
6855
6866
6856
6829
6779
6705
6618
6515
6397
6266
6133
5986
5827
5661
5484
5302
5120
4935
4749
4563
4384
4201
4017
3837
3647
3462
3282
3101
2923
2752
2589
2426
2265
2110
1949
1794
1648
1503
1365
1236
1120
1001
889
782
673
574
481
393
312
243
183
125
75
29
-17
-51
-81
-108
-131
-144
-154
-168
-177
-189
-205
-216
-227
-239
-250
-254
-260
-270
-276
-286
-298
-303
-309
-315
-321
-317
-318
-319
-315
-321
-323
-319
-316
-313
-306
-292
-283
-273
-261
-260
-256
-249
-248
-245
-240
-229
-227
-224
-222
-229
-231
-233
-237
-241
-241
-239
-244
-247
-254
-270
-281
-293
-306
-320
-327
-335
-347
-356
-371
-390
-403
-418
-435
-450
-458
-469
-483
-495
-512
-531
-547
-565
-585
-604
-615
-633
-652
-667
-692
-714
-733
-755
-776
-794
-804
-819
-831
-839
-856
-866
-871
-879
-884
-885
-879
-880
-878
-877
-882
-884
-887
-892
-898
-900
-901
-909
-915
-924
-940
-952
-964
-980
-996
-1005
-1016
-1032
-1044
-1061
-1081
-1095
-1109
-1123
-1134
-1138
-1141
-1145
-1146
-1151
-1157
-1158
-1162
-1166
-1171
-1166
-1169
-1173
-1175
-1186
-1195
-1202
-1213
-1225
-1235
-1239
-1250
-1260
-1269
-1289
-1304
-1316
-1331
-1344
-1352
-1352
-1358
-1360
-1363
-1370
-1371
-1370
-1370
-1368
-1362
-1352
-1348
-1341
-1339
-1343
-1344
-1346
-1350
-1354
-1352
-1352
-1358
-1361
-1371
-1384
-1394
-1405
-1418
-1428
-1432
-1436
-1441
-1441
-1446
-1450
-1450
-1450
-1449
-1445
-1430
-1420
-1409
-1394
-1388
-1380
-1371
-1365
-1361
-1357
-1348
-1347
-1346
-1343
-1353
-1359
-1364
-1374
-1383
-1388
-1391
-1401
-1408
-1415
-1429
-1437
-1442
-1449
-1454
-1452
-1447
-1447
-1443
-1441
-1445
-1443
-1442
-1442
-1443
-1437
-1434
-1438
-1439
-1449
-1463
-1473
-1486
-1500
-1514
-1522
-1532
-1545
-1555
-1572
-1590
-1603
-1619
-1634
-1646
-1646
-1651
-1653
-1651
-1654
-1654
-1648
-1644
-1639
-1630
-1612
-1602
-1590
-1576
-1574
-1569
-1562
-1560
-1558
-1553
-1546
-1544
-1540
-1538
-1543
-1544
-1544
-1548
-1552
-1553
-1551
-1556
-1558
-1563
-1574
-1578
-1582
-1587
-1589
-1582
-1576
-1571
-1562
-1559
-1558
-1551
-1545
-1539
-1532
-1519
-1510
-1504
-1495
-1495
-1495
-1492
-1493
-1495
-1495
-1487
-1485
-1485
-1482
-1487
-1489
-1488
-1489
-1488
-1483
-1468
-1460
-1448
-1433
-1425
-1411
-1394
-1379
-1364
-1344
-1321
-1304
-1285
-1268
-1259
-1246
-1233
-1224
-1213
-1198
-1180
-1168
-1153
-1140
-1131
-1117
-1104
-1091
-1077
-1055
-1034
-1016
-992
-973
-954
-929
-904
-879
-850
-814
-779
-746
-709
-681
-653
-622
-594
-567
-537
-500
-470
-440
-409
-386
-361
-334
-309
-283
-254
-216
-187
-156
-123
-100
-71
-41
-11
20
56
97
133
172
209
239
274
308
337
366
400
435
463
495
523
545
572
597
619
642
673
701
725
752
773
792
815
836
856
878
907
934
959
989
1011
1035
1064
1090
1116
1145
1181
1211
1240
1271
1293
1315
1339
1357
1374
1392
1416
1431
1446
1461
1466
1475
1486
1493
1501
1513
1528
1537
1548
1560
1565
1577
1590
1602
1617
1639
1664
1686
1713
1736
1753
1776
1796
1812
1827
1848
1865
1877
1890
1896
1899
1904
1906
1906
1906
1913
1915
1916
1921
1914
1909
1909
1907
1904
1905
1912
1914
1918
1925
1925
1928
1934
1937
1940
1945
1957
1959
1961
1960
1950
1943
1935
1925
1914
1908
1903
1891
1881
1868
1847
1830
1813
1792
1772
1759
1747
1732
1721
1706
1687
1676
1664
1653
1644
1644
1642
1639
1638
1632
1623
1619
1612
1604
1596
1597
1591
1584
1580
1565
1552
1543
1529
1515
1503
1497
1485
1473
1465
1448
1434
1425
1414
1404
1398
1400
1394
1392
1391
1384
1381
1381
1379
1378
1381
1388
1388
1389
1387
1377
1371
1364
1355
1346
1344
1342
1334
1329
1318
1302
1292
1281
1270
1260
1260
1258
1253
1252
1246
1238
1233
1227
1219
1212
1212
1204
1194
1187
1169
1151
1135
1115
1094
1074
1061
1042
1023
1006
979
955
935
909
885
863
848
825
805
786
763
746
731
716
704
699
699
694
693
690
682
680
679
676
673
676
679
675
674
666
653
646
636
624
613
608
601
590
582
569
554
544
533
523
517
523
524
527
534
532
533
538
541
545
550
562
567
573
580
576
575
577
574
571
572
578
577
577
577
571
569
569
567
566
571
579
583
593
601
606
617
630
642
656
677
699
715
735
748
757
770
780
788
796
809
819
825
833
834
834
838
839
840
843
855
860
864
871
869
869
872
872
872
874
884
887
889
894
886
881
878
869
860
853
849
837
825
811
788
767
744
715
682
650
614
565
511
446
367
283
190
85
-27
-139
-259
-391
-524
-670
-824
-978
-1141
-1310
-1483
-1655
-1834
-2020
-2205
-2398
-2593
-2786
-2986
-3190
-3399
-3605
-3825
-4050
-4280
-4523
-4771
-5022
-5283
-5547
-5812
-6069
-6327
-6574
-6807
-7039
-7251
-7443
-7619
-7771
-7891
-7977
-8037
-8061
-8050
-8009
-7927
-7807
-7655
-7467
-7237
-6967
-6666
-6329
-5965
-5579
-5163
-4726
-4273
-3803
-3312
-2810
-2300
-1774
-1246
-715
-179
353
877
1393
1906
2409
2901
3390
3866
4334
4799
5248
5680
6096
6500
6874
7223
7547
7831
8084
8303
8481
8621
8723
8794
8818
8807
8763
8675
8561
8419
8246
8049
7834
7603
7352
7090
6816
6528
6239
5947
5651
5357
5070
4787
4503
4225
3947
3669
3401
3140
2885
2639
2410
2189
1974
1773
1574
1383
1207
1039
879
730
595
467
347
241
135
38
-47
-128
-202
-267
-317
-369
-416
-456
-500
-539
-573
-608
-641
-672
-694
-725
-754
-780
-817
-847
-874
-902
-928
-946
-959
-975
-989
-1002
-1023
-1038
-1050
-1065
-1077
-1082
-1084
-1091
-1093
-1101
-1113
-1121
-1129
-1138
-1147
-1148
-1151
-1159
-1163
-1173
-1185
-1192
-1201
-1211
-1218
-1217
-1219
-1220
-1215
-1219
-1222
-1221
-1224
-1227
-1228
-1221
-1220
-1219
-1216
-1221
-1224
-1224
-1228
-1231
-1232
-1224
-1225
-1223
-1220
-1226
-1227
-1227
-1229
-1231
-1228
-1221
-1218
-1212
-1207
-1209
-1205
-1199
-1196
-1192
-1182
-1171
-1167
-1160
-1158
-1162
-1161
-1160
-1162
-1162
-1153
-1146
-1143
-1137
-1136
-1136
-1131
-1127
-1123
-1117
-1103
-1093
-1083
-1069
-1066
-1061
-1052
-1046
-1041
-1035
-1022
-1015
-1009
-1001
-1002
-1000
-996
-997
-997
-994
-983
-979
-973
-967
-968
-963
-955
-949
-941
-928
-911
-899
-884
-870
-862
-850
-838
-829
-819
-803
-788
-778
-766
-759
-757
-751
-746
-744
-742
-733
-729
-729
-728
-732
-740
-744
-750
-757
-764
-762
-766
-771
-772
-784
-794
-801
-812
-823
-831
-834
-842
-849
-855
-870
-883
-893
-908
-923
-934
-937
-949
-960
-972
-992
-1007
-1022
-1037
-1051
-1060
-1065
-1073
-1076
-1079
-1087
-1087
-1086
-1085
-1083
-1074
-1064
-1059
-1053
-1053
-1058
-1060
-1065
-1073
-1081
-1082
-1088
-1098
-1107
-1123
-1142
-1159
-1177
-1197
-1217
-1229
-1247
-1265
-1279
-1301
-1320
-1333
-1348
-1360
-1368
-1369
-1373
-1376
-1376
-1387
-1396
-1402
-1414
-1427
-1437
-1442
-1456
-1469
-1482
-1504
-1522
-1539
-1560
-1579
-1593
-1605
-1621
-1635
-1649
-1669
-1682
-1694
-1706
-1716
-1719
-1721
-1727
-1729
-1736
-1747
-1751
-1757
-1765
-1771
-1771
-1775
-1782
-1788
-1800
-1814
-1825
-1837
-1851
-1865
-1869
-1881
-1894
-1903
-1924
-1943
-1958
-1975
-1991
-2003
-2009
-2018
-2026
-2031
-2045
-2053
-2056
-2063
-2066
-2064
-2055
-2052
-2047
-2042
-2043
-2041
-2038
-2038
-2036
-2029
-2017
-2012
-2003
-1996
-1996
-1990
-1985
-1983
-1980
-1970
-1960
-1953
-1942
-1935
-1931
-1920
-1909
-1900
-1886
-1863
-1841
-1821
-1797
-1778
-1761
-1742
-1726
-1713
-1701
-1682
-1671
-1664
-1655
-1658
-1659
-1659
-1662
-1667
-1670
-1667
-1672
-1677
-1679
-1693
-1701
-1705
-1712
-1716
-1714
-1705
-1699
-1688
-1677
-1670
-1658
-1643
-1629
-1614
-1593
-1568
-1548
-1526
-1507
-1494
-1478
-1462
-1450
-1437
-1418
-1399
-1384
-1365
-1350
-1339
-1322
-1307
-1291
-1273
-1246
-1219
-1192
-1159
-1131
-1101
-1065
-1029
-992
-952
-900
-855
-809
-759
-718
-675
-630
-587
-545
-501
-450
-407
-363
-317
-282
-242
-198
-158
-115
-68
-17
29
76
125
168
217
270
322
375
436
501
562
626
688
745
808
869
929
989
1054
1118
1177
1239
1293
1343
1397
1449
1498
1549
1606
1662
1716
1772
1821
1868
1919
1967
2014
2064
2122
2174
2226
2281
2328
2378
2431
2481
2531
2583
2640
2688
2737
2785
2821
2860
2898
2930
2962
2996
3032
3060
3087
3113
3132
3154
3176
3194
3213
3235
3260
3277
3296
3310
3318
3329
3338
3344
3350
3363
3373
3376
3381
3377
3369
3363
3353
3341
3330
3322
3311
3296
3285
3265
3244
3228
3206
3185
3165
3153
3134
3114
3095
3069
3044
3022
2998
2974
2954
2943
2926
2911
2902
2882
2869
2859
2846
2835
2827
2821
2810
2799
2785
2763
2745
2725
2702
2678
2658
2638
2612
2588
2559
2524
2493
2460
2426
2392
2367
2340
2309
2282
2250
2217
2190
2163
2136
2111
2094
2074
2051
2032
2003
1974
1948
1918
1885
1854
1829
1797
1764
1732
1691
1652
1615
1574
1534
1496
1467
1431
1395
1363
1321
1285
1253
1219
1188
1163
1143
1119
1101
1082
1058
1040
1023
1004
987
975
965
948
933
914
890
871
852
830
809
797
784
767
754
736
716
701
686
672
660
657
651
646
646
637
629
626
620
615
612
615
613
610
607
595
584
575
562
550
539
536
526
516
508
491
480
469
456
443
435
431
423
418
415
406
403
402
400
400
406
415
419
428
434
434
440
444
446
447
456
461
462
466
464
460
459
456
451
447
449
447
442
441
429
419
415
407
401
399
404
406
408
413
410
410
416
418
424
432
448
455
463
471
470
471
473
470
468
470
474
472
473
471
462
459
455
449
444
445
448
448
451
452
449
452
454
456
459
470
479
485
493
497
498
502
504
505
505
513
515
515
518
509
502
497
490
481
474
473
466
459
455
443
436
433
427
424
425
434
438
445
454
457
465
474
482
490
502
517
525
534
541
540
542
543
541
540
546
553
554
559
559
554
554
553
551
551
561
569
575
587
595
604
617
630
644
659
682
699
714
732
738
745
756
761
766
772
783
787
790
796
791
789
789
783
777
775
778
775
772
770
760
756
753
747
743
743
746
741
738
733
719
709
697
681
664
653
641
624
609
588
562
540
516
491
468
452
434
414
397
377
356
342
327
314
303
304
300
296
298
290
286
286
283
279
277
280
275
271
267
252
239
228
213
197
184
175
159
145
130
109
92
77
59
42
31
24
12
4
-4
-18
-24
-29
-35
-38
-32
-27
-26
-21
-23
-29
-31
-36
-43
-50
-52
-56
-63
-68
-79
-93
-104
-119
-133
-147
-150
-160
-169
-174
-187
-196
-201
-206
-211
-213
-207
-205
-202
-196
-200
-201
-199
-202
-205
-203
-198
-200
-202
-205
-215
-222
-229
-240
-250
-255
-258
-266
-271
-277
-290
-296
-301
-307
-311
-305
-299
-296
-286
-281
-279
-269
-261
-252
-241
-225
-211
-201
-190
-186
-184
-179
-178
-178
-177
-167
-165
-164
-161
-166
-171
-173
-179
-184
-188
-183
-184
-184
-180
-186
-187
-184
-183
-180
-172
-161
-153
-143
-133
-130
-124
-118
-116
-114
-107
-99
-97
-92
-90
-96
-96
-98
-103
-108
-106
-106
-111
-114
-123
-133
-137
-142
-148
-151
-147
-143
-142
-135
-135
-135
-129
-127
-125
-121
-108
-103
-99
-95
-100
-105
-108
-115
-122
-127
-126
-132
-136
-139
-154
-164
-171
-182
-191
-194
-191
-192
-189
-186
-187
-182
-174
-167
-158
-143
-125
-113
-98
-86
-82
-74
-69
-68
-67
-59
-54
-54
-50
-54
-60
-62
-65
-69
-72
-69
-67
-67
-61
-62
-61
-54
-48
-41
-29
-7
9
26
45
55
68
82
92
101
111
128
136
144
153
150
150
152
151
149
151
157
158
161
164
160
162
166
169
175
189
208
223
244
263
277
298
317
334
351
376
397
412
430
440
446
455
461
464
467
474
478
479
484
479
473
471
465
458
454
457
454
451
452
445
440
439
435
434
435
446
448
451
454
447
442
438
430
422
416
412
402
393
382
362
347
331
312
293
280
268
249
234
215
192
176
160
143
129
124
119
112
109
102
93
88
83
77
72
72
69
63
62
50
38
30
19
6
-5
-9
-18
-28
-36
-52
-66
-77
-92
-106
-118
-120
-129
-135
-138
-147
-150
-149
-151
-150
-144
-134
-129
-123
-119
-125
-126
-129
-136
-142
-142
-142
-149
-152
-161
-176
-185
-195
-208
-219
-222
-226
-233
-237
-244
-253
-256
-259
-262
-262
-253
-247
-242
-232
-233
-233
-230
-231
-232
-232
-227
-228
-230
-230
-240
-247
-251
-259
-267
-272
-269
-275
-280
-284
-295
-302
-308
-316
-322
-324
-322
-326
-325
-327
-336
-341
-348
-360
-374
-387
-403
-430
-460
-501
-553
-604
-663
-730
-803
-876
-957
-1046
-1138
-1242
-1354
-1470
-1594
-1723
-1854
-1978
-2106
-2233
-2354
-2483
-2609
-2729
-2851
-2973
-3096
-3218
-3351
-3492
-3638
-3802
-3971
-4144
-4328
-4517
-4711
-4906
-5115
-5326
-5540
-5760
-5972
-6175
-6368
-6548
-6709
-6852
-6985
-7097
-7192
-7269
-7315
-7331
-7318
-7273
-7191
-7078
-6940
-6772
-6585
-6377
-6140
-5882
-5600
-5293
-4952
-4587
-4198
-3784
-3353
-2908
-2447
-1980
-1507
-1029
-542
-63
408
871
1310
1737
2153
2554
2946
3330
3707
4063
4400
4716
4997
5253
5484
5682
5853
6001
6130
6229
6308
6368
6406
6433
6447
6444
6426
6395
6349
6281
6199
6102
5987
5868
5741
5606
5465
5323
5176
5019
4864
4702
4536
4377
4217
4056
3898
3748
3596
3442
3291
3136
2979
2828
2675
2524
2375
2238
2096
1956
1824
1685
1554
1429
1306
1189
1079
982
884
793
710
623
545
476
409
349
298
258
217
182
150
115
87
62
37
13
-4
-19
-39
-56
-76
-101
-121
-142
-164
-187
-202
-217
-236
-250
-270
-293
-310
-329
-350
-370
-383
-397
-414
-427
-445
-465
-480
-496
-512
-525
-529
-539
-550
-559
-577
-593
-606
-621
-636
-648
-653
-665
-675
-682
-702
-716
-727
-741
-753
-760
-762
-769
-774
-778
-787
-792
-796
-802
-805
-803
-795
-792
-785
-781
-783
-781
-779
-780
-781
-774
-769
-769
-765
-767
-774
-776
-780
-786
-790
-789
-789
-793
-793
-801
-810
-815
-822
-830
-835
-830
-831
-831
-826
-827
-825
-819
-814
-807
-799
-783
-776
-768
-757
-760
-759
-757
-759
-762
-762
-760
-764
-767
-770
-780
-786
-791
-800
-808
-809
-807
-810
-809
-810
-816
-817
-817
-819
-818
-808
-799
-793
-782
-778
-777
-772
-770
-771
-772
-769
-769
-773
-774
-783
-793
-800
-811
-822
-832
-834
-843
-852
-859
-873
-884
-892
-901
-907
-911
-907
-909
-909
-906
-913
-914
-912
-913
-915
-912
-907
-910
-911
-914
-925
-932
-938
-948
-956
-957
-956
-961
-963
-969
-980
-984
-989
-994
-997
-991
-985
-981
-972
-969
-968
-961
-955
-949
-940
-925
-914
-905
-894
-895
-897
-896
-901
-907
-913
-911
-916
-923
-926
-938
-947
-954
-965
-975
-985
-986
-996
-1004
-1009
-1024
-1033
-1038
-1044
-1050
-1049
-1044
-1044
-1041
-1037
-1040
-1038
-1034
-1032
-1029
-1021
-1013
-1011
-1007
-1008
-1015
-1019
-1024
-1032
-1040
-1040
-1044
-1053
-1058
-1071
-1086
-1096
-1108
-1121
-1133
-1138
-1145
-1153
-1155
-1165
-1172
-1174
-1179
-1184
-1185
-1179
-1180
-1180
-1180
-1189
-1197
-1204
-1217
-1230
-1242
-1247
-1261
-1275
-1287
-1310
-1327
-1342
-1361
-1379
-1393
-1403
-1418
-1429
-1441
-1457
-1466
-1473
-1481
-1486
-1484
-1479
-1480
-1478
-1480
-1488
-1491
-1495
-1502
-1509
-1508
-1510
-1517
-1521
-1533
-1547
-1556
-1567
-1578
-1587
-1589
-1594
-1601
-1602
-1614
-1624
-1629
-1637
-1644
-1647
-1643
-1644
-1644
-1640
-1645
-1648
-1647
-1651
-1653
-1652
-1643
-1641
-1638
-1634
-1639
-1639
-1638
-1640
-1641
-1637
-1629
-1627
-1622
-1617
-1620
-1618
-1615
-1614
-1611
-1600
-1585
-1574
-1558
-1544
-1533
-1514
-1494
-1475
-1453
-1422
-1392
-1366
-1337
-1314
-1293
-1269
-1247
-1227
-1207
-1180
-1157
-1136
-1111
-1098
-1083
-1064
-1049
-1033
-1013
-985
-961
-936
-906
-883
-856
-823
-792
-759
-719
-669
-626
-580
-532
-493
-449
-405
-364
-324
-281
-236
-199
-161
-126
-100
-69
-39
-12
14
47
80
107
139
167
191
222
253
285
320
363
405
445
489
530
570
615
658
701
745
797
841
884
928
961
993
1028
1058
1088
1121
1158
1190
1221
1254
1278
1303
1331
1354
1379
1407
1441
1468
1496
1525
1546
1571
1598
1623
1650
1680
1713
1741
1771
1798
1816
1838
1860
1876
1892
1915
1936
1952
1970
1983
1990
2002
2011
2019
2027
2042
2053
2060
2070
2074
2077
2085
2092
2099
2108
2128
2143
2158
2177
2184
2195
2209
2219
2228
2239
2254
2262
2270
2279
2276
2275
2276
2271
2266
2264
2267
2262
2259
2254
2241
2232
2223
2212
2203
2200
2201
2197
2197
2195
2187
2184
2182
2178
2176
2181
2186
2186
2189
2186
2178
2174
2166
2155
2144
2137
2128
2114
2102
2083
2061
2043
2022
2000
1978
1965
1945
1925
1909
1886
1867
1853
1837
1823
1811
1807
1797
1790
1787
1772
1763
1756
1745
1734
1727
1722
1711
1699
1686
1666
1648
1631
1611
1591
1577
1566
1549
1534
1516
1491
1473
1455
1437
1421
1414
1407
1397
1393
1383
1372
1366
1359
1351
1345
1346
1344
1338
1334
1324
1312
1303
1289
1275
1261
1256
1245
1233
1224
1206
1191
1179
1165
1151
1140
1137
1127
1119
1115
1100
1091
1084
1074
1066
1062
1062
1056
1050
1043
1028
1015
1002
984
966
952
940
921
906
887
861
841
819
796
774
760
745
725
710
690
668
652
637
622
611
608
605
601
600
594
588
586
581
575
571
575
572
567
564
551
539
529
514
499
484
477
462
448
435
410
391
375
356
340
329
322
312
305
299
289
284
281
278
277
281
288
288
290
287
278
273
266
257
248
246
243
234
229
216
201
191
179
166
155
150
145
138
135
126
117
114
108
103
100
107
107
107
110
105
100
97
91
85
80
85
81
77
76
63
56
50
41
33
30
30
25
20
14
1
-6
-12
-20
-26
-26
-23
-25
-22
-22
-26
-22
-19
-17
-14
-4
3
5
11
10
7
8
8
5
4
8
8
7
7
-1
-10
-15
-23
-31
-36
-32
-33
-34
-31
-35
-35
-30
-28
-23
-14
4
14
26
40
42
49
56
60
63
70
79
81
85
88
83
81
80
77
74
76
79
77
77
73
65
63
61
57
56
64
72
77
86
91
94
103
109
114
120
131
137
140
145
138
131
127
117
107
99
98
90
81
73
57
44
34
22
12
7
11
9
10
15
14
20
29
38
50
66
87
102
119
134
142
153
163
168
173
183
194
199
205
206
201
200
196
190
184
186
185
182
182
178
173
173
173
173
176
186
193
199
210
211
214
220
221
223
226
236
239
242
246
240
237
236
231
225
221
223
216
210
204
190
181
175
169
165
166
172
174
180
186
186
192
199
202
205
214
221
223
226
225
219
218
215
211
207
210
210
204
201
191
177
166
153
138
124
118
108
98
94
80
70
67
62
58
57
63
64
65
67
61
56
54
46
39
35
36
29
22
14
-2
-14
-25
-37
-49
-55
-57
-63
-64
-66
-73
-75
-74
-76
-76
-68
-58
-54
-46
-43
-45
-43
-43
-44
-45
-39
-34
-34
-31
-33
-39
-41
-45
-51
-57
-54
-57
-62
-64
-77
-87
-94
-103
-112
-116
-114
-116
-116
-112
-115
-115
-109
-107
-103
-96
-83
-77
-70
-64
-65
-63
-61
-61
-61
-58
-52
-54
-52
-53
-62
-66
-72
-81
-89
-90
-89
-93
-93
-98
-105
-106
-107
-108
-107
-97
-88
-82
-74
-70
-70
-67
-68
-70
-71
-64
-63
-65
-63
-74
-82
-87
-97
-107
-116
-119
-129
-139
-145
-161
-172
-178
-187
-193
-193
-187
-186
-181
-174
-173
-166
-158
-152
-145
-133
-120
-113
-104
-99
-101
-99
-99
-103
-106
-103
-101
-104
-104
-110
-119
-124
-130
-136
-140
-135
-131
-128
-122
-119
-117
-109
-102
-94
-84
-63
-50
-38
-23
-20
-14
-7
-4
-2
0
7
7
8
12
3
-1
-3
-10
-16
-18
-15
-16
-15
-13
-15
-11
-5
0
8
22
40
53
70
85
93
105
115
123
129
142
152
156
163
164
161
162
161
159
158
162
165
164
165
161
154
153
150
147
147
158
162
167
176
178
184
193
201
209
220
238
248
259
272
272
275
279
279
278
283
290
292
296
300
298
300
303
304
306
315
328
336
349
360
367
380
393
404
418
439
459
475
494
506
515
526
534
539
544
552
556
556
558
552
543
539
531
523
516
518
512
506
502
490
481
474
465
457
450
453
447
444
444
433
429
427
422
417
416
418
413
409
402
386
374
361
343
326
313
301
283
267
247
220
198
176
153
131
117
103
88
77
61
45
35
25
14
6
4
1
-3
-4
-12
-21
-24
-31
-39
-44
-42
-47
-53
-58
-70
-80
-88
-99
-110
-120
-122
-133
-142
-148
-164
-174
-181
-189
-194
-193
-187
-184
-179
-174
-175
-172
-167
-165
-162
-153
-143
-139
-133
-131
-135
-135
-136
-139
-143
-139
-138
-140
-139
-146
-155
-159
-164
-171
-175
-173
-172
-171
-165
-166
-165
-158
-154
-151
-145
-133
-127
-123
-118
-122
-125
-127
-134
-141
-147
-145
-152
-158
-162
-176
-185
-192
-202
-210
-212
-211
-214
-214
-214
-219
-218
-215
-212
-207
-195
-182
-173
-163
-158
-158
-155
-154
-155
-157
-152
-149
-151
-150
-156
-165
-169
-175
-182
-188
-188
-192
-197
-198
-208
-216
-219
-225
-231
-233
-228
-229
-229
-225
-229
-230
-228
-231
-233
-233
-226
-228
-228
-228
-236
-240
-241
-245
-248
-248
-245
-248
-251
-255
-266
-272
-277
-283
-288
-286
-281
-282
-277
-276
-277
-271
-265
-259
-250
-233
-218
-208
-195
-189
-184
-177
-172
-168
-165
-154
-148
-145
-139
-144
-148
-149
-155
-162
-167
-165
-167
-169
-167
-173
-175
-173
-174
-172
-164
-147
-137
-124
-109
-103
-91
-77
-65
-53
-37
-18
-5
10
23
29
39
49
56
63
76
88
94
103
106
104
107
110
113
118
133
146
158
173
185
195
210
223
234
245
263
273
280
290
287
284
283
277
271
265
265
259
253
248
233
221
210
195
182
173
172
166
163
161
154
154
156
157
159
167
180
186
195
202
201
205
207
206
205
209
213
211
212
207
198
194
188
179
171
171
168
163
162
156
150
149
148
148
150
162
169
175
185
185
187
192
191
189
184
181
167
148
125
85
43
-3
-59
-119
-182
-244
-321
-403
-491
-591
-693
-799
-913
-1032
-1150
-1268
-1395
-1521
-1647
-1778
-1902
-2026
-2152
-2277
-2397
-2519
-2651
-2786
-2934
-3095
-3260
-3434
-3618
-3806
-3994
-4191
-4397
-4609
-4833
-5062
-5289
-5519
-5747
-5967
-6166
-6360
-6543
-6708
-6870
-7013
-7134
-7236
-7313
-7361
-7372
-7360
-7317
-7241
-7147
-7021
-6866
-6690
-6491
-6266
-6016
-5747
-5452
-5131
-4789
-4418
-4023
-3612
-3185
-2742
-2289
-1835
-1376
-922
-477
-35
394
808
1211
1608
1995
2367
2732
3075
3396
3700
3977
4224
4445
4646
4818
4962
5084
5179
5254
5315
5360
5393
5416
5435
5433
5416
5386
5331
5264
5186
5095
4997
4892
4788
4670
4544
4415
4268
4123
3977
3826
3675
3526
3380
3228
3075
2922
2761
2604
2449
2292
2138
1991
1850
1704
1564
1424
1280
1145
1013
883
757
643
533
424
324
223
124
36
-48
-127
-198
-256
-310
-360
-401
-442
-479
-507
-535
-560
-580
-588
-602
-615
-624
-641
-656
-669
-684
-700
-715
-721
-736
-750
-762
-786
-804
-818
-835
-850
-858
-861
-868
-870
-872
-877
-876
-871
-868
-862
-848
-833
-823
-811
-803
-802
-795
-790
-788
-785
-774
-765
-761
-752
-750
-750
-746
-743
-742
-739
-730
-721
-714
-702
-696
-690
-678
-667
-654
-639
-614
-596
-577
-557
-546
-534
-521
-513
-506
-499
-485
-479
-474
-467
-471
-471
-470
-472
-474
-473
-468
-469
-468
-467
-473
-473
-472
-472
-470
-461
-448
-439
-426
-415
-408
-395
-383
-373
-362
-345
-331
-323
-312
-310
-311
-309
-309
-311
-312
-308
-307
-309
-308
-318
-328
-334
-347
-359
-370
-371
-379
-386
-389
-399
-405
-407
-411
-414
-414
-404
-402
-399
-393
-398
-398
-397
-399
-402
-401
-397
-398
-397
-397
-404
-407
-410
-416
-422
-424
-424
-431
-433
-439
-449
-453
-458
-463
-466
-459
-453
-451
-444
-444
-446
-444
-444
-446
-447
-443
-444
-448
-450
-462
-475
-484
-498
-512
-523
-526
-534
-543
-550
-565
-578
-587
-601
-612
-620
-619
-624
-626
-625
-632
-634
-634
-636
-638
-637
-634
-638
-641
-647
-662
-672
-684
-698
-712
-721
-729
-743
-753
-767
-787
-801
-817
-835
-852
-861
-871
-884
-893
-906
-921
-930
-941
-951
-960
-962
-967
-974
-977
-992
-1006
-1016
-1031
-1046
-1058
-1065
-1078
-1092
-1104
-1126
-1145
-1161
-1181
-1200
-1216
-1225
-1242
-1258
-1273
-1295
-1313
-1328
-1345
-1360
-1370
-1375
-1383
-1386
-1390
-1399
-1403
-1406
-1412
-1417
-1416
-1415
-1421
-1425
-1434
-1448
-1458
-1469
-1484
-1498
-1506
-1517
-1531
-1543
-1561
-1581
-1597
-1614
-1633
-1650
-1657
-1668
-1678
-1682
-1695
-1705
-1710
-1716
-1722
-1723
-1718
-1718
-1717
-1715
-1722
-1727
-1730
-1737
-1743
-1747
-1743
-1747
-1750
-1753
-1764
-1771
-1778
-1788
-1798
-1803
-1805
-1813
-1818
-1824
-1835
-1840
-1842
-1847
-1848
-1841
-1831
-1826
-1814
-1807
-1804
-1796
-1790
-1787
-1784
-1774
-1768
-1766
-1762
-1764
-1768
-1769
-1772
-1776
-1780
-1776
-1778
-1781
-1780
-1790
-1796
-1798
-1802
-1803
-1801
-1791
-1785
-1777
-1765
-1760
-1751
-1738
-1728
-1716
-1701
-1678
-1664
-1648
-1633
-1625
-1613
-1601
-1591
-1579
-1562
-1541
-1526
-1507
-1490
-1479
-1463
-1446
-1430
-1412
-1385
-1354
-1326
-1290
-1258
-1228
-1189
-1149
-1107
-1060
-1004
-946
-890
-829
-772
-716
-656
-600
-546
-492
-430
-376
-324
-268
-224
-178
-128
-83
-38
9
61
107
154
204
243
288
338
383
430
482
540
592
646
699
745
795
846
893
941
992
1045
1091
1139
1183
1218
1258
1297
1332
1368
1409
1449
1483
1519
1547
1569
1594
1617
1637
1660
1690
1719
1746
1777
1804
1830
1861
1889
1917
1945
1984
2014
2043
2074
2094
2114
2136
2153
2169
2186
2209
2225
2241
2260
2268
2280
2296
2306
2317
2331
2351
2364
2379
2395
2404
2418
2433
2445
2459
2478
2500
2515
2533
2547
2555
2567
2579
2587
2594
2608
2619
2624
2631
2630
2625
2622
2617
2609
2603
2601
2596
2588
2581
2568
2553
2543
2529
2517
2507
2507
2500
2495
2494
2484
2477
2473
2466
2459
2452
2452
2443
2434
2427
2407
2390
2375
2355
2334
2318
2305
2286
2268
2248
2222
2201
2181
2158
2137
2122
2109
2091
2076
2058
2034
2017
2001
1982
1964
1954
1943
1927
1914
1894
1871
1851
1830
1806
1782
1763
1741
1716
1693
1662
1629
1600
1568
1535
1504
1482
1453
1424
1399
1367
1337
1312
1285
1260
1239
1227
1210
1196
1186
1167
1152
1140
1125
1110
1098
1089
1075
1060
1044
1020
1000
980
957
935
918
904
885
869
850
826
809
792
773
755
746
736
723
715
702
688
680
672
664
658
657
654
649
647
636
623
614
601
587
574
570
559
547
538
521
507
497
483
470
459
458
449
443
440
426
418
413
406
400
401
405
406
409
411
406
405
405
402
399
401
404
402
402
398
388
382
375
364
353
349
342
331
323
310
294
285
276
267
262
264
266
267
273
272
272
278
281
284
288
300
304
307
312
308
305
305
300
296
294
299
296
293
291
278
270
262
253
245
242
243
240
240
240
233
232
232
231
230
238
249
254
263
269
268
270
271
268
265
270
273
270
270
263
254
247
238
227
217
211
203
193
189
178
169
168
164
162
165
177
186
195
208
216
227
243
256
269
285
309
324
339
353
357
365
373
377
381
389
399
404
410
415
412
414
417
419
421
430
441
447
457
462
463
469
473
476
478
487
493
494
497
493
487
483
476
467
458
455
447
437
432
415
400
389
374
360
349
344
335
327
323
313
306
305
301
300
303
315
320
327
335
334
338
341
342
343
346
352
350
351
349
340
335
331
323
316
315
314
307
303
295
284
280
274
268
264
269
273
274
281
282
283
287
290
290
291
298
300
299
300
290
280
273
262
250
240
234
223
211
201
181
163
149
131
113
99
93
80
70
62
48
40
35
30
25
26
29
27
27
26
17
13
10
3
-2
-2
-1
-6
-9
-17
-30
-38
-47
-57
-66
-68
-72
-80
-85
-94
-104
-109
-114
-119
-122
-113
-109
-105
-95
-95
-93
-87
-86
-86
-85
-79
-79
-80
-78
-87
-94
-99
-110
-120
-126
-126
-133
-139
-144
-155
-162
-166
-171
-174
-169
-160
-155
-147
-139
-136
-127
-117
-110
-103
-90
-77
-70
-61
-59
-62
-61
-63
-67
-70
-65
-64
-67
-68
-74
-82
-86
-92
-97
-100
-94
-92
-90
-83
-84
-82
-75
-70
-63
-54
-37
-25
-13
2
4
8
15
16
17
21
29
30
32
34
29
27
24
19
14
14
16
11
10
6
-3
-6
-8
-13
-17
-13
-9
-9
-3
-3
-4
1
4
6
8
16
20
21
25
22
17
16
12
7
2
5
1
-5
-7
-21
-31
-39
-49
-58
-64
-63
-67
-69
-67
-74
-77
-75
-75
-74
-66
-54
-48
-39
-31
-29
-24
-20
-20
-19
-13
-4
-2
2
4
-1
-1
-2
-7
-11
-10
-8
-11
-9
-12
-17
-14
-12
-8
-2
12
27
39
57
68
78
93
104
115
126
144
152
155
158
147
133
117
92
60
24
-11
-59
-111
-166
-238
-312
-390
-475
-564
-652
-740
-837
-936
-1041
-1157
-1272
-1388
-1508
-1627
-1741
-1852
-1971
-2089
-2213
-2346
-2481
-2623
-2776
-2937
-3100
-3271
-3454
-3643
-3847
-4062
-4282
-4515
-4757
-5003
-5247
-5491
-5732
-5959
-6181
-6391
-6582
-6762
-6927
-7076
-7198
-7306
-7391
-7446
-7476
-7471
-7431
-7361
-7260
-7128
-6962
-6779
-6572
-6338
-6094
-5823
-5528
-5213
-4873
-4507
-4117
-3712
-3290
-2855
-2415
-1963
-1504
-1048
-595
-144
297
719
1127
1518
1892
2260
2615
2952
3271
3575
3852
4097
4318
4507
4670
4814
4938
5042
5132
5213
5278
5329
5372
5398
5414
5425
5421
5405
5379
5349
5301
5244
5179
5097
5009
4913
4806
4691
4571
4452
4318
4180
4039
3885
3733
3582
3425
3268
3114
2964
2809
2657
2506
2349
2199
2052
1907
1766
1635
1510
1384
1266
1149
1033
928
829
733
646
573
504
437
379
320
263
214
169
125
85
54
24
-6
-29
-60
-89
-112
-137
-161
-182
-194
-211
-228
-243
-265
-285
-301
-320
-336
-349
-353
-364
-372
-377
-389
-394
-397
-403
-409
-410
-409
-414
-417
-421
-433
-441
-449
-460
-471
-476
-480
-490
-497
-509
-527
-540
-554
-570
-585
-591
-599
-609
-616
-627
-639
-645
-651
-656
-659
-653
-651
-650
-646
-651
-656
-658
-665
-673
-679
-678
-683
-689
-692
-704
-714
-722
-735
-749
-761
-765
-777
-788
-797
-813
-824
-833
-842
-851
-853
-850
-851
-848
-845
-848
-846
-842
-841
-838
-830
-821
-818
-811
-808
-810
-806
-805
-806
-806
-800
-798
-800
-800
-806
-815
-820
-827
-835
-841
-839
-841
-843
-840
-846
-850
-848
-850
-851
-849
-840
-836
-833
-828
-834
-839
-842
-851
-859
-866
-865
-873
-881
-889
-905
-917
-929
-945
-960
-970
-976
-986
-991
-996
-1007
-1010
-1011
-1013
-1012
-1004
-993
-986
-973
-966
-963
-954
-948
-943
-939
-928
-921
-918
-912
-912
-913
-910
-909
-907
-905
-894
-888
-885
-879
-883
-885
-884
-886
-889
-888
-882
-881
-880
-876
-882
-886
-886
-891
-897
-900
-898
-906
-913
-921
-938
-951
-964
-980
-995
-1007
-1016
-1030
-1041
-1054
-1074
-1090
-1106
-1124
-1141
-1151
-1159
-1170
-1177
-1187
-1200
-1207
-1215
-1223
-1230
-1228
-1229
-1234
-1236
-1244
-1256
-1266
-1279
-1293
-1309
-1315
-1329
-1345
-1358
-1383
-1407
-1427
-1451
-1476
-1497
-1513
-1535
-1556
-1572
-1597
-1616
-1630
-1647
-1661
-1668
-1668
-1673
-1673
-1674
-1680
-1683
-1684
-1688
-1691
-1690
-1688
-1692
-1695
-1702
-1716
-1726
-1737
-1752
-1766
-1774
-1781
-1794
-1804
-1820
-1839
-1852
-1866
-1880
-1891
-1894
-1897
-1902
-1903
-1907
-1912
-1912
-1914
-1916
-1918
-1911
-1911
-1913
-1912
-1923
-1933
-1940
-1951
-1962
-1971
-1974
-1983
-1991
-1996
-2011
-2022
-2030
-2042
-2053
-2059
-2059
-2063
-2065
-2066
-2072
-2073
-2070
-2068
-2063
-2052
-2037
-2025
-2011
-1999
-1993
-1983
-1974
-1967
-1960
-1947
-1935
-1929
-1918
-1914
-1914
-1909
-1906
-1906
-1904
-1897
-1892
-1889
-1884
-1883
-1883
-1878
-1875
-1872
-1866
-1850
-1839
-1827
-1811
-1802
-1789
-1771
-1756
-1740
-1722
-1697
-1680
-1661
-1639
-1628
-1612
-1593
-1579
-1564
-1545
-1521
-1503
-1484
-1466
-1455
-1439
-1422
-1406
-1387
-1362
-1332
-1305
-1274
-1244
-1218
-1184
-1149
-1115
-1079
-1035
-992
-953
-910
-875
-843
-807
-774
-743
-710
-672
-637
-604
-570
-542
-517
-488
-461
-435
-407
-369
-338
-306
-269
-241
-208
-170
-133
-94
-52
-1
45
94
146
187
234
283
328
374
422
473
517
562
605
641
682
723
760
798
841
887
926
967
1006
1038
1077
1115
1153
1193
1241
1288
1332
1380
1422
1461
1505
1548
1590
1634
1682
1729
1771
1816
1853
1887
1925
1957
1990
2025
2069
2106
2142
2180
2209
2239
2271
2299
2326
2355
2392
2420
2449
2480
2500
2525
2552
2575
2598
2624
2653
2677
2701
2724
2739
2757
2774
2787
2799
2815
2831
2841
2851
2857
2856
2858
2858
2855
2851
2853
2852
2844
2840
2828
2812
2801
2788
2773
2761
2755
2748
2740
2736
2724
2713
2707
2698
2690
2685
2687
2683
2678
2674
2661
2650
2640
2627
2614
2603
2601
2589
2578
2566
2543
2524
2505
2483
2460
2442
2426
2406
2387
2369
2345
2327
2311
2293
2277
2266
2256
2240
2228
2212
2191
2174
2157
2138
2121
2111
2098
2081
2066
2045
2021
2002
1981
1959
1937
1921
1902
1882
1865
1839
1814
1796
1775
1756
1742
1736
1725
1714
1707
1693
1680
1672
1659
1646
1636
1633
1621
1610
1600
1580
1564
1548
1529
1510
1495
1482
1463
1446
1426
1399
1376
1356
1333
1314
1302
1294
1282
1277
1270
1259
1255
1251
1247
1245
1251
1254
1252
1253
1247
1239
1234
1228
1219
1210
1207
1199
1188
1182
1164
1147
1134
1118
1102
1088
1081
1069
1058
1050
1035
1023
1016
1006
998
994
1001
1000
1001
1003
996
993
990
984
977
974
973
966
961
954
939
929
919
907
895
889
883
872
865
855
842
836
830
825
822
828
833
836
842
844
844
848
849
849
849
856
856
854
856
846
836
829
818
805
794
789
778
766
756
737
721
707
690
675
664
662
653
647
641
630
624
621
616
612
612
616
614
614
612
601
594
585
572
559
552
545
533
524
509
490
477
463
447
432
424
415
403
394
381
367
358
347
336
327
327
323
318
318
307
298
291
280
268
257
251
238
226
215
193
174
158
138
119
104
95
79
64
50
31
17
5
-7
-18
-23
-23
-28
-29
-32
-40
-43
-45
-49
-52
-49
-47
-51
-52
-58
-69
-75
-83
-92
-100
-101
-104
-111
-114
-122
-132
-138
-145
-151
-155
-148
-145
-141
-131
-130
-125
-116
-108
-99
-86
-65
-49
-31
-10
0
14
29
40
49
62
79
88
98
106
108
112
116
116
116
119
124
124
125
125
119
118
119
119
121
131
142
148
159
163
165
171
175
176
179
187
193
194
198
196
190
187
181
175
170
174
172
169
171
163
157
155
149
145
144
151
151
154
161
159
161
166
166
167
171
179
179
181
180
172
165
157
144
129
118
109
93
80
64
43
26
9
-10
-27
-38
-48
-63
-73
-89
-106
-116
-127
-137
-143
-141
-141
-142
-141
-145
-152
-154
-160
-166
-173
-170
-175
-180
-182
-193
-203
-210
-219
-227
-232
-230
-234
-235
-232
-240
-241
-237
-235
-230
-219
-203
-190
-174
-158
-147
-132
-117
-104
-92
-76
-59
-48
-35
-26
-24
-18
-14
-13
-13
-6
0
1
6
5
1
1
0
-3
-2
5
11
15
23
26
28
35
39
44
50
66
74
80
88
86
86
88
86
85
85
93
92
92
95
85
80
76
70
63
60
60
56
53
49
40
37
37
34
35
43
54
61
72
81
84
91
98
101
104
114
121
122
125
122
116
114
110
105
100
100
98
93
93
85
76
73
67
61
58
66
67
69
75
74
76
82
87
93
100
116
124
132
142
140
142
145
144
142
145
149
148
149
148
140
135
131
125
120
121
127
128
134
138
137
141
146
151
157
171
184
194
207
214
218
226
230
231
232
237
238
236
237
228
218
212
201
190
181
180
172
163
155
141
130
123
114
107
103
108
105
104
106
98
95
95
93
91
92
96
95
94
92
81
76
72
65
58
57
57
52
51
46
35
29
23
15
9
12
15
17
25
29
34
44
55
66
79
99
116
131
148
154
159
168
170
170
172
180
182
182
185
179
176
175
168
162
158
163
160
158
157
149
145
143
139
135
137
142
142
144
144
137
135
132
127
122
124
127
125
126
123
116
114
111
107
104
110
113
112
113
107
98
92
84
76
69
69
67
65
68
63
59
61
60
60
63
72
75
77
81
73
66
60
49
37
26
23
12
1
-10
-29
-44
-58
-74
-89
-99
-106
-116
-122
-129
-141
-145
-147
-150
-151
-146
-139
-137
-131
-130
-133
-131
-131
-134
-135
-131
-130
-136
-141
-151
-166
-178
-193
-209
-226
-235
-250
-266
-279
-303
-324
-341
-361
-379
-395
-402
-412
-421
-426
-439
-447
-452
-461
-469
-473
-472
-479
-485
-491
-506
-516
-526
-538
-549
-554
-557
-564
-568
-572
-582
-586
-589
-593
-595
-589
-582
-577
-567
-560
-554
-540
-526
-511
-492
-467
-443
-424
-402
-386
-373
-359
-347
-337
-328
-310
-300
-292
-282
-283
-283
-280
-280
-280
-279
-271
-270
-267
-262
-266
-266
-262
-262
-261
-255
-241
-235
-226
-218
-216
-210
-204
-201
-198
-191
-181
-177
-169
-164
-166
-164
-162
-164
-166
-162
-158
-160
-159
-165
-174
-179
-185
-192
-198
-198
-202
-211
-218
-234
-255
-276
-304
-338
-378
-414
-464
-522
-585
-665
-751
-841
-940
-1045
-1154
-1263
-1385
-1514
-1644
-1791
-1937
-2081
-2228
-2372
-2511
-2643
-2779
-2911
-3040
-3178
-3314
-3454
-3602
-3756
-3911
-4068
-4235
-4404
-4580
-4767
-4957
-5154
-5356
-5559
-5753
-5941
-6125
-6292
-6451
-6599
-6727
-6842
-6943
-7022
-7073
-7098
-7097
-7061
-6998
-6905
-6776
-6619
-6436
-6228
-5988
-5734
-5459
-5159
-4845
-4504
-4134
-3742
-3327
-2891
-2433
-1972
-1502
-1021
-548
-69
410
879
1335
1779
2210
2620
3017
3401
3765
4121
4463
4785
5085
5365
5622
5846
6045
6215
6355
6479
6583
6668
6741
6808
6864
6905
6940
6953
6945
6922
6877
6810
6727
6631
6519
6390
6251
6093
5921
5744
5554
5358
5156
4961
4756
4551
4349
4141
3937
3739
3542
3348
3161
2986
2808
2636
2472
2300
2138
1984
1831
1683
1544
1412
1278
1151
1026
898
779
665
553
447
351
260
167
82
-3
-88
-163
-233
-298
-357
-402
-443
-483
-515
-548
-580
-604
-627
-649
-667
-678
-690
-704
-714
-732
-752
-767
-787
-806
-823
-831
-844
-857
-867
-884
-899
-911
-926
-940
-952
-955
-964
-971
-974
-985
-989
-988
-990
-989
-983
-973
-968
-963
-959
-962
-961
-961
-965
-970
-971
-971
-979
-985
-995
-1011
-1022
-1035
-1050
-1064
-1070
-1078
-1088
-1094
-1104
-1115
-1118
-1121
-1122
-1119
-1107
-1095
-1083
-1067
-1059
-1051
-1039
-1031
-1023
-1015
-1000
-992
-985
-978
-980
-982
-982
-987
-993
-997
-994
-1000
-1005
-1008
-1022
-1030
-1036
-1044
-1050
-1050
-1047
-1047
-1044
-1040
-1042
-1038
-1033
-1029
-1023
-1013
-1001
-996
-989
-986
-989
-989
-990
-994
-998
-996
-997
-1003
-1007
-1018
-1033
-1043
-1054
-1066
-1075
-1078
-1082
-1088
-1089
-1098
-1105
-1106
-1108
-1109
-1106
-1094
-1087
-1080
-1070
-1069
-1066
-1062
-1063
-1065
-1066
-1059
-1063
-1067
-1070
-1084
-1094
-1105
-1118
-1132
-1141
-1146
-1157
-1163
-1170
-1181
-1187
-1190
-1194
-1196
-1190
-1180
-1175
-1165
-1158
-1156
-1148
-1142
-1138
-1133
-1120
-1112
-1109
-1104
-1106
-1112
-1115
-1120
-1127
-1133
-1132
-1136
-1141
-1143
-1156
-1167
-1174
-1185
-1194
-1201
-1199
-1202
-1203
-1201
-1205
-1206
-1202
-1202
-1199
-1192
-1177
-1169
-1161
-1152
-1153
-1152
-1152
-1156
-1162
-1166
-1168
-1176
-1183
-1191
-1207
-1217
-1228
-1240
-1253
-1259
-1265
-1275
-1280
-1287
-1299
-1305
-1312
-1320
-1326
-1324
-1323
-1325
-1322
-1324
-1327
-1326
-1327
-1329
-1330
-1324
-1323
-1324
-1321
-1330
-1340
-1347
-1359
-1372
-1383
-1389
-1402
-1416
-1428
-1449
-1469
-1484
-1503
-1519
-1532
-1536
-1547
-1554
-1560
-1571
-1577
-1581
-1585
-1588
-1585
-1579
-1579
-1576
-1576
-1583
-1587
-1591
-1598
-1605
-1607
-1609
-1617
-1622
-1631
-1646
-1655
-1667
-1681
-1694
-1699
-1706
-1715
-1721
-1730
-1740
-1745
-1751
-1756
-1761
-1756
-1755
-1755
-1751
-1758
-1763
-1764
-1770
-1777
-1782
-1782
-1789
-1797
-1802
-1818
-1832
-1842
-1857
-1871
-1882
-1886
-1897
-1907
-1916
-1931
-1941
-1947
-1953
-1956
-1952
-1944
-1940
-1931
-1924
-1923
-1916
-1909
-1905
-1899
-1886
-1874
-1867
-1857
-1853
-1854
-1851
-1851
-1852
-1852
-1844
-1839
-1836
-1831
-1831
-1832
-1829
-1828
-1826
-1823
-1809
-1799
-1789
-1773
-1766
-1753
-1734
-1715
-1694
-1668
-1634
-1605
-1575
-1541
-1518
-1490
-1460
-1434
-1407
-1378
-1343
-1316
-1288
-1259
-1237
-1210
-1182
-1156
-1128
-1096
-1061
-1032
-999
-968
-944
-913
-882
-851
-817
-774
-730
-688
-640
-597
-556
-509
-464
-420
-373
-321
-271
-225
-177
-136
-97
-55
-17
21
59
106
146
184
226
258
292
328
363
399
438
485
526
570
620
660
706
756
804
853
907
964
1014
1065
1115
1157
1201
1246
1287
1329
1374
1421
1461
1503
1541
1573
1608
1643
1675
1708
1747
1786
1821
1859
1892
1921
1956
1990
2024
2060
2102
2143
2180
2219
2251
2278
2308
2333
2355
2376
2404
2424
2440
2459
2465
2472
2481
2486
2491
2497
2509
2514
2518
2526
2523
2526
2532
2535
2540
2551
2567
2578
2592
2605
2612
2622
2632
2638
2643
2652
2661
2663
2666
2664
2655
2648
2640
2628
2616
2610
2602
2589
2580
2563
2543
2528
2511
2494
2480
2473
2466
2457
2452
2441
2430
2423
2413
2403
2395
2396
2390
2383
2376
2359
2342
2326
2307
2287
2268
2257
2238
2221
2207
2180
2159
2141
2119
2098
2082
2070
2054
2042
2029
2011
1998
1987
1973
1963
1959
1959
1954
1954
1951
1943
1940
1937
1931
1925
1925
1921
1913
1907
1895
1879
1868
1855
1841
1829
1822
1813
1800
1791
1774
1757
1746
1732
1721
1712
1713
1707
1703
1702
1694
1688
1687
1682
1678
1676
1681
1678
1675
1673
1659
1648
1637
1622
1607
1596
1588
1575
1564
1552
1533
1519
1506
1491
1476
1466
1459
1447
1439
1428
1412
1403
1393
1382
1371
1367
1362
1352
1345
1332
1317
1305
1291
1274
1258
1246
1230
1211
1195
1169
1144
1124
1100
1076
1055
1041
1021
1001
983
959
939
923
906
893
883
884
880
878
879
870
865
862
856
851
849
849
843
838
831
816
804
792
775
760
750
743
731
722
709
691
679
665
651
638
632
625
615
609
597
584
575
565
553
542
536
527
515
506
486
467
452
432
412
394
383
365
347
329
304
279
257
231
205
181
166
143
123
106
81
63
50
37
26
21
20
16
16
15
8
8
9
8
8
13
18
17
19
16
7
2
-5
-15
-24
-24
-28
-35
-39
-47
-56
-60
-65
-70
-73
-67
-63
-59
-49
-48
-45
-35
-29
-22
-12
3
13
21
30
30
32
36
36
36
39
50
52
56
61
57
57
58
57
58
62
70
72
78
83
81
85
91
95
102
117
133
144
158
166
169
177
182
185
187
198
205
209
214
214
210
210
207
203
199
203
201
198
201
194
189
190
187
184
185
193
196
200
207
206
208
214
215
217
221
233
237
241
245
241
241
242
239
237
239
243
241
240
236
224
217
210
201
194
193
194
190
191
188
182
184
185
186
189
200
210
216
225
230
231
236
239
242
245
257
263
268
275
271
268
268
262
255
249
249
244
239
237
226
219
216
210
207
209
219
223
230
238
241
248
257
264
272
284
299
307
318
326
327
331
334
335
335
339
340
333
328
317
302
291
278
265
253
249
244
238
236
230
223
222
221
220
222
234
240
245
253
251
250
253
251
249
249
254
252
249
249
236
225
216
202
189
179
175
165
158
152
140
134
131
126
125
130
139
143
150
156
155
158
161
159
157
161
164
162
163
157
147
141
132
121
110
104
94
81
72
57
42
34
24
16
10
16
16
16
22
19
20
25
27
30
36
48
53
58
64
57
52
48
39
30
23
21
12
3
-6
-23
-37
-49
-63
-75
-80
-81
-86
-86
-87
-91
-90
-88
-87
-87
-80
-74
-73
-68
-70
-77
-79
-85
-93
-99
-101
-105
-114
-119
-130
-143
-151
-164
-176
-188
-190
-199
-208
-214
-228
-239
-245
-252
-256
-259
-254
-254
-253
-249
-258
-263
-266
-273
-279
-282
-281
-285
-288
-292
-302
-309
-314
-321
-326
-327
-324
-327
-328
-332
-343
-348
-353
-359
-363
-359
-354
-353
-346
-346
-347
-344
-342
-341
-340
-334
-329
-327
-322
-324
-328
-327
-331
-335
-337
-330
-330
-331
-330
-338
-344
-347
-352
-355
-356
-347
-346
-342
-335
-338
-333
-325
-318
-309
-295
-277
-264
-250
-237
-231
-222
-212
-205
-197
-183
-166
-155
-141
-130
-125
-116
-108
-104
-100
-89
-79
-74
-63
-57
-53
-44
-35
-27
-17
1
18
32
51
62
72
87
98
107
117
134
145
153
164
167
171
177
178
179
181
190
190
191
193
184
180
178
174
172
175
183
186
192
199
199
205
212
219
227
241
256
265
276
283
284
290
295
299
302
313
322
327
336
338
339
343
347
349
354
365
374
383
397
403
409
421
430
438
448
465
475
482
489
485
477
468
449
425
397
369
327
279
227
158
87
9
-79
-174
-272
-373
-485
-601
-722
-856
-990
-1127
-1269
-1411
-1547
-1681
-1819
-1952
-2088
-2228
-2362
-2498
-2639
-2786
-2931
-3086
-3251
-3419
-3601
-3792
-3985
-4185
-4393
-4606
-4817
-5033
-5249
-5456
-5663
-5858
-6035
-6202
-6354
-6491
-6605
-6708
-6792
-6849
-6885
-6888
-6854
-6793
-6697
-6567
-6400
-6217
-6012
-5786
-5550
-5292
-5015
-4722
-4407
-4068
-3706
-3328
-2931
-2522
-2107
-1676
-1236
-793
-347
102
545
972
1388
1785
2165
2540
2907
3263
3612
3956
4281
4581
4863
5113
5336
5538
5716
5871
6006
6130
6233
6320
6396
6449
6491
6525
6542
6545
6533
6507
6457
6390
6307
6201
6082
5952
5805
5649
5485
5321
5140
4956
4768
4568
4370
4173
3973
3774
3579
3386
3190
2998
2808
2615
2432
2254
2078
1908
1750
1598
1446
1303
1162
1021
892
765
642
525
421
320
222
133
46
-36
-107
-173
-232
-284
-322
-360
-394
-422
-457
-488
-512
-538
-562
-583
-598
-616
-633
-649
-673
-696
-715
-739
-763
-785
-799
-823
-844
-866
-895
-920
-943
-966
-986
-1000
-1010
-1024
-1033
-1041
-1055
-1063
-1069
-1076
-1082
-1081
-1079
-1081
-1079
-1081
-1088
-1088
-1091
-1096
-1100
-1098
-1099
-1104
-1106
-1114
-1125
-1132
-1142
-1151
-1158
-1155
-1158
-1160
-1157
-1163
-1164
-1161
-1161
-1158
-1153
-1140
-1132
-1123
-1113
-1113
-1110
-1104
-1103
-1101
-1095
-1084
-1080
-1076
-1073
-1077
-1079
-1081
-1086
-1091
-1092
-1090
-1094
-1095
-1097
-1105
-1107
-1108
-1108
-1106
-1096
-1084
-1075
-1062
-1053
-1048
-1038
-1031
-1027
-1023
-1014
-1008
-1007
-1005
-1008
-1015
-1020
-1028
-1037
-1047
-1048
-1057
-1067
-1074
-1090
-1102
-1109
-1117
-1123
-1125
-1118
-1115
-1108
-1096
-1092
-1082
-1066
-1053
-1038
-1019
-994
-976
-956
-938
-926
-912
-897
-885
-873
-858
-841
-832
-822
-816
-819
-819
-822
-827
-832
-831
-829
-832
-830
-834
-841
-842
-843
-845
-845
-837
-830
-827
-820
-820
-823
-823
-826
-832
-838
-834
-840
-847
-851
-866
-880
-891
-906
-921
-934
-942
-958
-972
-983
-1004
-1019
-1028
-1040
-1049
-1053
-1051
-1054
-1053
-1052
-1056
-1056
-1056
-1058
-1061
-1061
-1059
-1064
-1067
-1074
-1088
-1098
-1109
-1122
-1135
-1142
-1150
-1163
-1174
-1193
-1215
-1232
-1250
-1268
-1284
-1292
-1301
-1312
-1317
-1327
-1337
-1342
-1349
-1355
-1360
-1357
-1361
-1366
-1369
-1382
-1393
-1402
-1415
-1428
-1440
-1444
-1456
-1467
-1476
-1497
-1512
-1525
-1541
-1557
-1567
-1573
-1584
-1592
-1600
-1612
-1619
-1625
-1632
-1637
-1636
-1631
-1632
-1630
-1632
-1640
-1644
-1648
-1656
-1664
-1666
-1670
-1679
-1686
-1701
-1718
-1731
-1744
-1760
-1774
-1783
-1794
-1809
-1819
-1836
-1854
-1866
-1880
-1893
-1903
-1903
-1908
-1913
-1915
-1924
-1931
-1935
-1943
-1951
-1957
-1957
-1965
-1973
-1979
-1996
-2009
-2020
-2033
-2044
-2051
-2054
-2060
-2064
-2068
-2079
-2083
-2086
-2089
-2091
-2085
-2077
-2073
-2065
-2058
-2055
-2045
-2034
-2024
-2014
-1996
-1980
-1969
-1956
-1950
-1947
-1941
-1938
-1937
-1935
-1927
-1922
-1920
-1915
-1919
-1923
-1922
-1926
-1929
-1931
-1924
-1924
-1924
-1921
-1925
-1926
-1922
-1921
-1916
-1907
-1887
-1872
-1853
-1830
-1816
-1796
-1773
-1751
-1728
-1700
-1669
-1643
-1615
-1587
-1567
-1543
-1519
-1498
-1477
-1451
-1423
-1402
-1377
-1356
-1341
-1319
-1298
-1277
-1254
-1222
-1191
-1161
-1125
-1094
-1062
-1023
-983
-943
-899
-850
-803
-758
-709
-670
-630
-586
-546
-506
-464
-415
-372
-330
-285
-250
-212
-172
-136
-99
-60
-11
31
75
121
159
203
251
296
343
395
452
504
559
614
663
716
768
816
863
915
968
1016
1065
1110
1149
1193
1234
1273
1313
1359
1403
1442
1486
1524
1561
1603
1646
1689
1735
1788
1839
1890
1945
1991
2039
2091
2139
2186
2234
2287
2331
2374
2417
2449
2482
2516
2545
2574
2605
2643
2671
2699
2727
2744
2765
2785
2802
2820
2841
2865
2883
2904
2924
2936
2951
2967
2979
2990
3006
3021
3030
3040
3043
3038
3036
3030
3020
3010
3006
2998
2985
2975
2958
2938
2922
2904
2883
2861
2847
2829
2808
2793
2769
2746
2729
2709
2690
2675
2665
2651
2637
2626
2606
2589
2574
2555
2535
2517
2507
2487
2467
2447
2418
2392
2367
2338
2309
2285
2263
2235
2209
2181
2145
2117
2090
2062
2036
2018
2004
1986
1973
1957
1939
1927
1914
1902
1891
1889
1884
1876
1871
1861
1848
1838
1825
1811
1796
1789
1776
1760
1748
1725
1704
1685
1663
1641
1621
1607
1588
1572
1559
1539
1523
1513
1501
1492
1488
1491
1487
1484
1481
1470
1464
1459
1452
1445
1442
1441
1433
1428
1419
1402
1390
1376
1359
1343
1332
1321
1304
1289
1270
1247
1230
1212
1195
1181
1176
1170
1163
1159
1153
1144
1141
1135
1129
1123
1126
1123
1118
1116
1103
1091
1082
1068
1054
1040
1030
1014
998
985
961
940
922
900
881
867
861
851
845
841
834
834
838
842
849
862
879
891
905
916
920
928
934
937
938
945
950
949
951
945
935
929
922
912
903
900
896
888
884
875
864
859
852
848
846
855
858
861
867
863
861
863
860
856
854
857
853
849
847
833
822
813
799
785
775
770
757
746
734
716
704
693
681
671
668
670
668
671
673
670
672
676
678
681
690
698
699
704
701
694
691
685
677
669
665
658
647
638
623
606
593
577
561
547
545
538
532
530
521
515
514
510
509
511
520
523
527
533
526
523
521
514
507
504
505
499
496
492
482
476
471
463
456
453
454
449
448
444
435
433
432
430
429
436
443
447
455
458
459
464
467
468
470
478
483
485
489
486
481
480
476
470
465
470
467
462
460
449
439
432
424
416
411
415
411
409
410
399
393
389
381
373
370
368
361
354
345
328
314
299
279
259
245
233
215
200
182
158
139
119
97
77
64
50
33
21
3
-16
-28
-41
-53
-62
-65
-68
-72
-72
-79
-86
-89
-95
-102
-108
-106
-111
-117
-122
-135
-147
-157
-170
-183
-194
-198
-210
-221
-230
-249
-262
-272
-283
-292
-294
-291
-291
-287
-282
-283
-278
-272
-268
-262
-251
-238
-230
-219
-212
-213
-210
-208
-211
-213
-210
-209
-212
-213
-219
-229
-235
-244
-254
-261
-262
-264
-266
-262
-266
-268
-265
-264
-262
-256
-242
-233
-225
-214
-212
-209
-203
-202
-200
-197
-188
-187
-187
-186
-197
-203
-207
-214
-221
-224
-224
-230
-233
-236
-246
-248
-248
-248
-247
-237
-225
-216
-203
-191
-185
-173
-162
-154
-146
-131
-119
-112
-102
-100
-102
-102
-105
-109
-113
-112
-113
-116
-115
-124
-131
-134
-139
-143
-142
-132
-125
-116
-102
-93
-80
-61
-44
-24
-2
29
50
71
92
103
116
129
137
144
153
163
167
172
174
170
172
174
174
175
183
193
197
207
213
215
223
230
237
246
263
278
289
305
313
319
328
335
341
346
358
365
370
379
376
374
375
372
368
366
371
371
370
371
364
362
364
363
364
370
385
393
404
417
422
433
447
457
469
486
504
516
529
539
541
548
554
556
558
565
571
570
572
566
554
545
535
522
511
508
504
497
494
486
478
475
471
468
468
477
481
485
493
491
489
489
486
481
479
482
480
477
477
467
459
455
445
436
431
433
427
423
421
413
411
410
408
408
413
423
427
434
440
439
442
444
443
442
445
447
442
439
430
416
407
396
383
371
366
358
345
334
318
300
286
270
254
239
235
226
217
212
197
185
176
163
150
