-4850
-4842
-4838
-4830
-4827
-4838
-4859
-4893
-4936
-4982
-5041
-5111
-5194
-5262
-5338
-5416
-5491
-5567
-5638
-5698
-5756
-5805
-5843
-5852
-5853
-5840
-5807
-5761
-5692
-5595
-5488
-5361
-5213
-5033
-4842
-4637
-4420
-4196
-3962
-3724
-3492
-3264
-3035
-2800
-2579
-2363
-2152
-1948
-1745
-1548
-1362
-1187
-1011
-840
-687
-542
-408
-287
-168
-62
31
114
198
277
345
409
467
521
580
630
678
720
780
835
887
943
996
1050
1110
1164
1217
1267
1332
1387
1439
1490
1533
1574
1615
1641
1660
1675
1697
1707
1714
1719
1718
1719
1720
1713
1702
1695
1697
1693
1691
1693
1695
1706
1720
1731
1742
1767
1800
1830
1865
1903
1942
1989
2034
2076
2113
2157
2201
2236
2271
2299
2324
2353
2371
2384
2388
2407
2417
2422
2428
2431
2434
2441
2442
2442
2438
2454
2461
2469
2482
2492
2506
2524
2535
2545
2557
2579
2593
2606
2618
2624
2631
2635
2628
2616
2605
2600
2584
2567
2548
2524
2505
2484
2457
2425
2404
2388
2365
2347
2331
2316
2308
2300
2289
2277
2275
2275
2271
2271
2269
2268
2275
2271
2264
2249
2250
2243
2231
2220
2205
2190
2179
2158
2136
2109
2100
2081
2061
2044
2024
2008
1996
1978
1961
1947
1945
1938
1934
1933
1930
1933
1937
1936
1932
1932
1941
1940
1940
1939
1933
1932
1926
1913
1893
1883
1874
1859
1846
1832
1817
1806
1791
1772
1751
1741
1733
1722
1716
1709
1704
1710
1707
1703
1695
1702
1704
1703
1704
1701
1698
1700
1693
1684
1669
1671
1661
1649
1637
1619
1604
1590
1570
1547
1526
1515
1499
1484
1471
1457
1448
1443
1432
1420
1416
1424
1425
1429
1434
1438
1449
1456
1457
1452
1458
1465
1465
1465
1462
1456
1453
1444
1430
1410
1400
1388
1372
1359
1342
1326
1320
1305
1290
1272
1270
1265
1259
1257
1255
1257
1268
1271
1274
1274
1292
1299
1305
1311
1314
1319
1324
1322
1316
1311
1315
1309
1302
1295
1284
1279
1275
1265
1253
1247
1251
1247
1246
1247
1246
1253
1259
1261
1261
1274
1290
1300
1313
1323
1330
1339
1342
1338
1326
1324
1317
1302
1288
1266
1241
1219
1184
1144
1096
1059
1018
975
936
896
861
835
802
770
738
726
708
691
680
668
661
657
648
637
628
628
619
610
601
589
580
572
556
536
522
516
501
488
474
460
452
441
427
410
406
405
399
396
394
391
395
398
399
396
410
420
427
437
443
448
459
461
460
456
463
465
464
464
459
454
454
442
426
406
403
390
378
368
357
350
346
337
327
321
327
328
332
338
342
353
363
366
365
368
377
376
376
374
370
370
365
353
334
324
313
295
276
256
234
216
195
172
144
133
118
100
86
71
57
50
37
24
7
3
-7
-21
-33
-51
-70
-84
-111
-142
-176
-196
-227
-259
-291
-328
-362
-395
-436
-480
-521
-551
-587
-621
-652
-683
-708
-731
-759
-788
-808
-822
-841
-858
-875
-893
-905
-921
-943
-970
-989
-1007
-1032
-1056
-1083
-1111
-1134
-1163
-1194
-1232
-1251
-1276
-1304
-1327
-1352
-1374
-1389
-1409
-1426
-1444
-1446
-1451
-1456
-1455
-1456
-1453
-1440
-1438
-1435
-1433
-1418
-1410
-1402
-1394
-1389
-1382
-1375
-1376
-1381
-1385
-1378
-1380
-1382
-1383
-1387
-1387
-1386
-1391
-1400
-1399
-1391
-1389
-1383
-1375
-1367
-1350
-1334
-1322
-1310
-1289
-1266
-1247
-1228
-1211
-1194
-1173
-1159
-1150
-1149
-1131
-1121
-1118
-1114
-1115
-1116
-1114
-1118
-1125
-1136
-1132
-1135
-1140
-1140
-1143
-1142
-1133
-1132
-1130
-1126
-1108
-1095
-1080
-1063
-1046
-1026
-1005
-991
-980
-966
-943
-930
-918
-908
-903
-894
-889
-892
-901
-901
-895
-897
-897
-897
-897
-890
-886
-885
-885
-875
-861
-850
-835
-821
-806
-784
-770
-759
-757
-740
-731
-728
-724
-724
-725
-722
-727
-735
-747
-743
-750
-758
-763
-772
-777
-777
-785
-794
-801
-796
-797
-798
-797
-798
-794
-789
-789
-792
-790
-779
-777
-773
-770
-771
-769
-770
-779
-794
-801
-806
-819
-832
-849
-870
-887
-909
-936
-967
-990
-1011
-1036
-1058
-1081
-1102
-1114
-1133
-1153
-1177
-1180
-1187
-1193
-1194
-1195
-1193
-1184
-1182
-1181
-1185
-1173
-1172
-1172
-1171
-1174
-1175
-1173
-1181
-1191
-1203
-1206
-1218
-1229
-1240
-1253
-1260
-1265
-1276
-1288
-1294
-1289
-1292
-1293
-1292
-1291
-1282
-1272
-1266
-1262
-1246
-1226
-1213
-1197
-1184
-1172
-1156
-1144
-1137
-1135
-1124
-1114
-1109
-1104
-1103
-1102
-1094
-1096
-1100
-1109
-1102
-1098
-1095
-1087
-1080
-1068
-1049
-1035
-1020
-1006
-970
-941
-911
-875
-841
-802
-760
-726
-694
-663
-624
-593
-563
-533
-507
-478
-448
-428
-411
-389
-359
-337
-313
-289
-266
-237
-208
-184
-163
-131
-96
-66
-34
-1
32
70
106
139
169
208
246
278
311
340
367
399
419
436
446
470
487
499
512
520
527
539
540
540
535
550
555
560
568
573
581
593
598
603
610
628
640
653
667
677
691
705
711
712
717
728
729
730
727
721
719
714
702
684
677
672
660
650
640
630
627
622
615
607
611
616
618
624
627
633
646
651
654
653
666
673
676
679
678
677
680
671
660
643
646
637
627
618
605
596
588
575
561
549
548
542
538
538
537
542
549
550
548
553
567
573
580
586
590
599
604
601
591
590
588
576
564
549
532
517
499
477
448
432
411
384
360
333
308
293
271
251
231
227
221
216
216
214
215
222
219
214
205
215
214
212
211
206
204
201
190
176
163
160
149
139
129
116
109
102
88
70
58
55
44
38
32
25
27
26
22
12
12
12
5
-1
-9
-19
-24
-35
-50
-74
-85
-103
-127
-149
-176
-203
-224
-251
-279
-309
-325
-345
-365
-381
-398
-411
-415
-428
-440
-452
-447
-449
-452
-452
-456
-456
-456
-462
-471
-480
-478
-486
-496
-508
-525
-538
-553
-574
-599
-617
-628
-646
-659
-672
-684
-687
-693
-702
-713
-711
-704
-700
-691
-682
-671
-654
-642
-633
-631
-613
-602
-596
-589
-585
-583
-575
-576
-581
-590
-588
-592
-600
-605
-614
-619
-617
-623
-629
-634
-624
-620
-615
-608
-602
-590
-575
-564
-555
-542
-519
-504
-490
-478
-470
-459
-450
-448
-449
-444
-434
-431
-426
-424
-423
-416
-414
-414
-417
-409
-397
-389
-378
-368
-356
-337
-321
-307
-297
-269
-246
-224
-197
-170
-141
-102
-66
-27
16
79
142
208
279
348
419
494
553
602
642
682
703
713
714
705
695
683
661
633
603
579
542
503
462
419
381
341
292
234
177
118
44
-36
-128
-230
-334
-449
-578
-717
-851
-986
-1127
-1269
-1415
-1565
-1712
-1871
-2032
-2198
-2341
-2481
-2617
-2740
-2858
-2965
-3058
-3152
-3246
-3346
-3435
-3533
-3633
-3727
-3819
-3897
-3954
-4004
-4039
-4060
-4061
-4067
-4078
-4095
-4126
-4165
-4213
-4280
-4360
-4447
-4533
-4633
-4736
-4840
-4944
-5040
-5133
-5227
-5318
-5391
-5446
-5492
-5517
-5525
-5516
-5484
-5436
-5373
-5291
-5179
-5041
-4886
-4707
-4512
-4301
-4071
-3839
-3603
-3368
-3113
-2863
-2617
-2372
-2134
-1902
-1673
-1459
-1253
-1056
-848
-656
-473
-292
-122
43
206
352
489
618
751
869
981
1087
1184
1280
1372
1452
1525
1597
1674
1739
1803
1865
1923
1985
2044
2097
2144
2200
2258
2306
2355
2401
2444
2489
2530
2564
2594
2628
2662
2687
2712
2731
2747
2768
2775
2778
2773
2783
2784
2779
2774
2765
2755
2749
2735
2718
2697
2695
2684
2673
2666
2655
2647
2643
2632
2618
2605
2602
2592
2582
2572
2558
2547
2537
2516
2489
2464
2445
2415
2385
2352
2316
2284
2248
2204
2152
2110
2068
2019
1973
1927
1882
1843
1803
1761
1716
1681
1649
1613
1580
1545
1512
1489
1458
1426
1391
1372
1349
1325
1303
1279
1258
1242
1219
1196
1169
1163
1147
1130
1117
1099
1085
1074
1057
1039
1023
1018
1007
998
989
979
973
969
958
944
937
939
934
932
930
928
932
933
927
917
918
921
919
919
919
918
922
922
919
910
911
911
906
904
898
894
899
895
888
878
882
882
879
881
880
883
892
894
896
894
912
918
924
931
935
941
949
951
950
951
960
961
962
963
961
963
966
960
951
947
950
946
943
939
933
934
934
930
922
928
937
942
951
960
970
984
995
1003
1006
1020
1032
1040
1049
1055
1060
1072
1075
1074
1068
1075
1075
1071
1070
1066
1064
1069
1066
1061
1054
1066
1069
1073
1082
1091
1104
1123
1138
1152
1170
1199
1221
1243
1266
1285
1309
1332
1347
1357
1372
1392
1402
1413
1422
1427
1437
1442
1442
1437
1443
1451
1454
1460
1465
1471
1483
1492
1499
1502
1521
1537
1550
1568
1583
1600
1625
1642
1656
1668
1692
1711
1727
1744
1757
1770
1789
1795
1798
1794
1806
1805
1803
1801
1796
1794
1793
1786
1777
1771
1777
1776
1776
1779
1780
1786
1793
1791
1785
1786
1792
1789
1788
1785
1780
1780
1775
1765
1750
1744
1739
1727
1716
1702
1688
1678
1664
1646
1624
1620
1612
1602
1599
1594
1593
1599
1599
1598
1595
1605
1610
1613
1617
1616
1615
1620
1613
1602
1587
1585
1571
1554
1537
1516
1497
1478
1452
1423
1394
1375
1348
1323
1299
1272
1253
1236
1214
1191
1177
1173
1163
1156
1150
1143
1142
1138
1130
1117
1114
1112
1101
1089
1074
1055
1038
1015
988
953
935
910
881
855
826
798
776
748
719
688
671
650
629
613
593
576
566
544
520
493
478
453
426
398
365
333
299
256
206
155
111
56
1
-55
-115
-170
-227
-291
-360
-421
-476
-539
-599
-658
-717
-767
-819
-873
-929
-974
-1015
-1060
-1102
-1144
-1185
-1220
-1260
-1302
-1350
-1380
-1418
-1460
-1501
-1545
-1590
-1629
-1674
-1721
-1770
-1802
-1839
-1875
-1907
-1941
-1969
-1988
-2013
-2037
-2056
-2059
-2064
-2066
-2064
-2061
-2053
-2043
-2040
-2039
-2036
-2023
-2019
-2015
-2011
-2011
-2006
-2004
-2010
-2022
-2025
-2025
-2033
-2038
-2044
-2050
-2048
-2047
-2048
-2051
-2043
-2031
-2021
-2006
-1989
-1969
-1940
-1916
-1893
-1874
-1837
-1807
-1782
-1755
-1733
-1710
-1684
-1667
-1653
-1645
-1623
-1611
-1603
-1594
-1591
-1586
-1577
-1577
-1578
-1578
-1565
-1558
-1548
-1536
-1525
-1509
-1488
-1474
-1460
-1441
-1410
-1387
-1362
-1337
-1315
-1289
-1267
-1252
-1244
-1229
-1211
-1202
-1192
-1183
-1177
-1165
-1158
-1155
-1155
-1147
-1137
-1131
-1122
-1113
-1102
-1081
-1066
-1052
-1041
-1010
-984
-960
-932
-906
-878
-844
-818
-793
-775
-741
-719
-701
-682
-670
-657
-642
-636
-633
-629
-617
-612
-607
-602
-599
-593
-584
-583
-584
-579
-563
-553
-540
-524
-509
-487
-465
-448
-434
-409
-382
-362
-343
-327
-314
-299
-290
-287
-289
-285
-281
-283
-283
-287
-291
-287
-294
-303
-317
-313
-314
-318
-317
-317
-312
-302
-296
-290
-286
-264
-252
-241
-225
-212
-196
-178
-168
-162
-155
-141
-137
-133
-131
-134
-134
-135
-144
-157
-166
-167
-178
-187
-196
-207
-211
-217
-227
-240
-240
-235
-235
-231
-225
-219
-208
-197
-190
-185
-172
-159
-152
-143
-137
-132
-121
-120
-124
-135
-133
-138
-146
-152
-161
-167
-168
-177
-187
-201
-196
-201
-207
-208
-211
-209
-202
-200
-197
-192
-177
-169
-160
-151
-145
-135
-125
-124
-128
-127
-120
-122
-125
-130
-138
-142
-149
-161
-179
-185
-188
-196
-201
-208
-212
-211
-210
-210
-211
-198
-183
-172
-156
-142
-128
-107
-96
-87
-85
-69
-60
-53
-46
-42
-38
-28
-30
-33
-41
-30
-30
-29
-26
-24
-18
-9
-6
-5
-1
12
19
29
41
52
69
88
100
109
124
147
159
171
179
184
193
195
192
181
180
179
169
157
142
123
105
84
57
26
7
-14
-40
-63
-88
-112
-127
-150
-171
-194
-201
-211
-221
-227
-235
-239
-237
-245
-254
-269
-265
-272
-280
-287
-297
-306
-316
-333
-353
-371
-378
-392
-404
-414
-424
-427
-426
-430
-435
-430
-417
-408
-394
-378
-361
-336
-312
-293
-279
-254
-229
-211
-194
-180
-168
-154
-146
-142
-147
-139
-137
-140
-141
-146
-151
-148
-154
-159
-167
-161
-158
-156
-150
-147
-138
-121
-112
-103
-95
-69
-52
-35
-17
-2
15
30
38
41
44
56
57
57
56
50
48
46
37
24
18
20
15
15
16
18
29
37
43
47
62
82
97
115
132
149
171
189
202
207
228
240
246
253
254
254
258
252
243
230
228
220
209
200
187
178
176
165
155
145
153
153
155
160
162
169
178
181
184
190
206
212
218
224
225
229
231
224
211
206
204
195
187
179
169
165
157
144
126
119
114
106
100
94
88
91
89
86
78
90
96
98
105
108
112
120
121
119
113
118
115
109
103
92
83
79
63
47
28
22
7
-8
-23
-40
-53
-64
-81
-99
-112
-113
-121
-126
-128
-132
-129
-126
-128
-134
-132
-124
-124
-122
-124
-127
-125
-128
-138
-154
-163
-169
-182
-193
-206
-219
-226
-239
-254
-276
-277
-285
-294
-299
-305
-307
-302
-301
-302
-305
-293
-290
-287
-283
-283
-281
-275
-279
-287
-297
-297
-306
-317
-328
-343
-355
-366
-384
-406
-422
-428
-441
-452
-460
-470
-472
-473
-478
-483
-477
-463
-455
-443
-432
-421
-405
-393
-387
-384
-374
-362
-357
-350
-346
-344
-337
-339
-345
-357
-352
-353
-358
-358
-359
-358
-350
-346
-342
-339
-317
-302
-286
-263
-243
-218
-187
-163
-141
-119
-87
-63
-42
-22
-6
12
30
39
43
48
60
62
63
62
56
56
53
43
29
25
25
18
15
11
6
8
7
4
-1
5
13
18
25
28
31
40
38
32
19
23
19
11
4
-7
-18
-25
-40
-56
-78
-81
-92
-104
-111
-121
-127
-126
-132
-139
-143
-135
-131
-124
-113
-102
-85
-64
-49
-36
-20
4
18
31
43
52
65
75
79
77
84
94
97
102
106
110
122
133
142
149
167
188
206
230
253
278
311
337
360
379
414
443
472
505
538
577
627
674
726
778
851
914
974
1034
1084
1128
1165
1182
1183
1172
1158
1127
1089
1046
996
947
894
828
754
679
609
529
449
368
282
197
102
-7
-130
-251
-381
-527
-678
-839
-1008
-1179
-1357
-1540
-1727
-1904
-2081
-2262
-2441
-2623
-2801
-2964
-3127
-3280
-3426
-3543
-3654
-3754
-3839
-3916
-3984
-4042
-4109
-4175
-4243
-4288
-4338
-4375
-4394
-4399
-4384
-4352
-4315
-4274
-4230
-4182
-4150
-4127
-4114
-4117
-4129
-4151
-4189
-4240
-4294
-4346
-4407
-4468
-4529
-4591
-4645
-4697
-4745
-4788
-4806
-4808
-4803
-4782
-4746
-4694
-4619
-4525
-4412
-4281
-4118
-3938
-3747
-3540
-3328
-3110
-2881
-2660
-2442
-2230
-2009
-1798
-1596
-1399
-1214
-1033
-854
-692
-536
-390
-231
-91
41
167
282
392
497
590
674
754
839
911
979
1044
1104
1167
1228
1280
1328
1382
1443
1496
1550
1603
1654
1712
1765
1812
1855
1907
1961
2007
2054
2098
2139
2182
2218
2248
2270
2300
2322
2336
2350
2355
2358
2365
2361
2352
2338
2335
2325
2311
2299
2283
2271
2266
2250
2235
2218
2219
2212
2205
2201
2195
2193
2193
2188
2181
2177
2183
2181
2179
2177
2172
2169
2166
2154
2138
2128
2123
2111
2100
2087
2074
2066
2054
2037
2017
2007
2001
1990
1981
1972
1963
1957
1947
1933
1911
1905
1894
1879
1868
1853
1839
1831
1815
1795
1771
1758
1740
1720
1703
1683
1666
1656
1636
1614
1589
1580
1561
1542
1523
1501
1483
1466
1443
1419
1396
1386
1368
1351
1336
1319
1309
1301
1288
1273
1267
1269
1263
1260
1255
1248
1247
1242
1232
1217
1213
1211
1202
1195
1187
1176
1170
1158
1143
1122
1119
1110
1098
1091
1080
1071
1067
1056
1043
1026
1025
1018
1010
1007
1001
999
1005
999
993
985
991
989
988
988
988
991
997
997
995
996
1007
1010
1013
1016
1018
1025
1032
1033
1030
1035
1046
1049
1054
1058
1060
1070
1075
1076
1075
1084
1096
1103
1112
1119
1126
1139
1145
1150
1148
1164
1174
1179
1187
1190
1194
1201
1201
1198
1190
1196
1196
1192
1192
1187
1185
1188
1181
1172
1163
1168
1166
1164
1166
1165
1170
1176
1176
1173
1171
1179
1178
1177
1176
1172
1173
1172
1164
1152
1146
1145
1135
1126
1116
1104
1099
1090
1077
1061
1054
1051
1044
1041
1037
1034
1040
1040
1039
1033
1047
1056
1061
1070
1077
1084
1095
1100
1102
1100
1114
1118
1120
1123
1121
1119
1120
1110
1098
1086
1086
1078
1072
1066
1059
1057
1059
1053
1046
1043
1051
1052
1055
1059
1061
1069
1076
1076
1072
1077
1085
1086
1088
1089
1087
1092
1093
1089
1081
1079
1079
1073
1068
1061
1053
1053
1044
1034
1018
1022
1021
1018
1018
1017
1017
1023
1023
1021
1016
1029
1033
1034
1039
1038
1038
1041
1034
1024
1013
1012
1003
993
983
969
958
948
930
909
893
886
873
862
853
843
840
837
831
821
822
827
825
825
826
825
831
832
829
821
819
817
807
798
784
769
760
740
716
685
671
649
622
595
564
533
507
474
441
405
387
361
334
312
286
264
246
220
192
164
145
117
88
59
25
-6
-37
-77
-121
-162
-194
-235
-275
-314
-356
-393
-433
-479
-531
-572
-610
-654
-694
-734
-773
-806
-841
-880
-921
-953
-985
-1021
-1055
-1092
-1129
-1157
-1195
-1235
-1281
-1311
-1347
-1386
-1422
-1461
-1497
-1526
-1562
-1598
-1637
-1654
-1679
-1704
-1723
-1743
-1756
-1763
-1772
-1779
-1782
-1772
-1766
-1759
-1749
-1742
-1729
-1715
-1707
-1702
-1691
-1671
-1661
-1650
-1641
-1636
-1626
-1620
-1622
-1628
-1624
-1617
-1615
-1611
-1607
-1603
-1593
-1585
-1580
-1576
-1560
-1543
-1527
-1506
-1485
-1462
-1429
-1405
-1383
-1366
-1334
-1309
-1287
-1264
-1245
-1226
-1204
-1193
-1186
-1185
-1167
-1162
-1159
-1155
-1155
-1152
-1147
-1147
-1149
-1149
-1138
-1133
-1126
-1115
-1104
-1085
-1063
-1045
-1028
-1004
-971
-947
-922
-897
-876
-851
-829
-814
-805
-786
-767
-755
-744
-735
-729
-720
-715
-715
-720
-712
-707
-705
-699
-695
-689
-674
-667
-659
-654
-632
-614
-596
-575
-556
-536
-509
-494
-481
-473
-449
-436
-426
-416
-411
-404
-397
-398
-403
-408
-404
-409
-415
-420
-428
-430
-431
-436
-443
-443
-432
-428
-419
-410
-401
-383
-366
-354
-345
-324
-301
-284
-266
-250
-237
-221
-210
-204
-206
-195
-189
-189
-187
-190
-193
-191
-197
-204
-214
-209
-208
-207
-201
-197
-188
-170
-160
-148
-138
-108
-87
-66
-44
-25
-4
16
28
36
43
58
61
63
63
59
58
56
47
33
24
22
11
2
-7
-17
-19
-23
-29
-38
-34
-26
-23
-17
-12
-9
-3
-2
-5
-17
-15
-21
-33
-43
-60
-78
-92
-114
-139
-167
-184
-206
-228
-245
-259
-263
-253
-247
-236
-220
-183
-151
-117
-83
-54
-27
-5
3
-1
-15
-28
-58
-98
-146
-208
-277
-359
-460
-577
-696
-816
-952
-1094
-1245
-1405
-1567
-1740
-1927
-2130
-2334
-2550
-2781
-3019
-3267
-3520
-3769
-4022
-4270
-4518
-4740
-4956
-5163
-5352
-5529
-5690
-5828
-5954
-6061
-6151
-6211
-6263
-6305
-6336
-6365
-6388
-6402
-6425
-6446
-6467
-6469
-6474
-6464
-6429
-6368
-6277
-6161
-6032
-5886
-5727
-5555
-5397
-5252
-5124
-5020
-4934
-4874
-4848
-4854
-4873
-4900
-4940
-4976
-5005
-5025
-5025
-5014
-4990
-4950
-4883
-4798
-4704
-4596
-4479
-4354
-4213
-4072
-3925
-3777
-3603
-3431
-3257
-3076
-2896
-2714
-2527
-2346
-2169
-1998
-1816
-1646
-1482
-1319
-1163
-1007
-848
-701
-556
-413
-258
-113
30
171
307
444
581
708
832
957
1090
1212
1332
1450
1563
1678
1789
1891
1987
2090
2195
2291
2386
2478
2564
2651
2729
2796
2854
2913
2969
3013
3052
3084
3109
3137
3151
3158
3154
3164
3164
3157
3151
3140
3131
3126
3116
3106
3094
3100
3100
3102
3109
3115
3125
3144
3154
3165
3176
3196
3207
3216
3222
3222
3223
3222
3210
3193
3176
3166
3143
3119
3093
3061
3034
3004
2967
2927
2898
2874
2846
2824
2803
2784
2773
2761
2748
2734
2730
2730
2727
2727
2724
2720
2724
2717
2705
2685
2680
2665
2646
2626
2602
2578
2558
2530
2499
2463
2445
2417
2389
2366
2342
2323
2311
2293
2277
2264
2264
2259
2255
2252
2247
2247
2248
2241
2229
2220
2218
2204
2188
2167
2141
2117
2088
2050
2005
1968
1933
1889
1848
1804
1759
1721
1681
1640
1600
1573
1552
1530
1515
1501
1491
1492
1485
1479
1468
1474
1476
1474
1473
1469
1465
1464
1453
1439
1418
1413
1396
1376
1358
1334
1313
1294
1266
1236
1206
1186
1158
1131
1105
1077
1055
1035
1008
980
957
943
921
902
882
860
843
825
800
771
751
733
708
683
655
625
599
569
535
499
471
445
415
389
361
334
317
291
266
239
229
218
207
202
196
194
198
195
191
183
195
196
195
197
195
195
197
191
180
170
167
156
144
132
118
108
100
85
68
58
59
52
48
46
43
50
57
61
62
76
94
106
121
134
146
162
176
185
189
203
214
218
224
223
221
226
221
214
204
209
209
208
209
208
211
220
221
223
224
246
261
275
294
311
331
355
371
384
397
418
430
442
453
461
472
482
484
481
482
490
490
490
490
488
493
496
493
487
493
500
503
511
519
529
544
558
570
578
599
616
627
639
646
652
663
665
664
658
664
662
656
651
641
633
631
618
604
589
593
588
584
584
582
586
594
597
602
610
631
647
665
684
701
722
743
755
764
778
797
808
819
828
833
842
846
844
837
841
846
845
847
849
851
859
864
867
866
881
895
906
923
938
954
979
997
1012
1023
1046
1061
1072
1083
1088
1093
1102
1097
1089
1076
1077
1066
1052
1036
1015
995
975
948
920
895
880
858
838
818
796
780
764
741
713
693
679
657
636
614
589
569
544
512
475
448
420
386
352
316
279
245
206
162
111
76
35
-8
-47
-86
-122
-150
-182
-212
-244
-260
-281
-301
-317
-335
-349
-356
-374
-395
-418
-428
-448
-470
-493
-521
-546
-571
-603
-637
-667
-688
-716
-743
-769
-797
-818
-838
-862
-889
-906
-915
-929
-939
-948
-956
-956
-959
-964
-973
-970
-964
-964
-962
-962
-964
-961
-965
-972
-986
-983
-989
-999
-1006
-1017
-1028
-1035
-1049
-1064
-1083
-1089
-1101
-1114
-1123
-1134
-1141
-1140
-1147
-1153
-1159
-1151
-1148
-1145
-1140
-1137
-1130
-1122
-1121
-1122
-1122
-1111
-1112
-1112
-1114
-1120
-1121
-1124
-1134
-1148
-1154
-1155
-1162
-1167
-1173
-1179
-1178
-1180
-1185
-1192
-1187
-1178
-1171
-1160
-1150
-1139
-1121
-1110
-1101
-1099
-1079
-1067
-1058
-1047
-1040
-1034
-1024
-1022
-1024
-1032
-1026
-1030
-1037
-1040
-1047
-1052
-1051
-1060
-1068
-1075
-1069
-1069
-1067
-1062
-1056
-1043
-1025
-1011
-997
-978
-948
-927
-906
-886
-869
-847
-828
-815
-808
-792
-775
-766
-757
-751
-747
-738
-732
-730
-731
-722
-710
-701
-689
-677
-663
-641
-625
-609
-596
-562
-533
-506
-474
-444
-413
-378
-351
-327
-308
-275
-252
-232
-210
-195
-180
-162
-156
-155
-155
-146
-146
-146
-146
-148
-146
-142
-145
-150
-151
-142
-140
-134
-125
-116
-99
-81
-67
-56
-35
-11
4
20
35
46
62
74
81
83
91
99
100
103
102
100
106
101
95
83
90
90
87
87
85
85
91
91
91
88
103
109
114
120
121
124
128
122
113
104
105
98
90
83
72
65
59
45
28
14
11
-1
-10
-17
-24
-23
-22
-24
-28
-20
-6
2
15
28
41
61
79
93
103
119
136
146
156
162
166
177
175
170
158
160
156
147
138
125
113
106
91
76
59
65
62
60
63
65
72
85
93
101
113
136
152
168
184
197
213
229
235
236
240
252
255
258
260
259
262
261
253
239
235
233
224
218
210
201
199
196
190
181
183
186
184
185
184
183
190
186
181
170
173
169
160
153
142
131
125
109
91
69
67
53
39
27
12
-1
-11
-27
-43
-58
-61
-71
-78
-83
-90
-91
-91
-97
-106
-110
-105
-109
-112
-117
-126
-129
-137
-151
-170
-179
-185
-198
-209
-220
-232
-240
-250
-263
-279
-284
-289
-298
-301
-307
-310
-303
-302
-301
-303
-291
-282
-275
-266
-260
-254
-242
-241
-243
-250
-239
-241
-246
-250
-260
-267
-272
-283
-297
-308
-309
-316
-321
-324
-328
-326
-320
-320
-319
-309
-289
-275
-258
-240
-224
-202
-185
-175
-171
-156
-142
-135
-129
-125
-125
-122
-124
-133
-148
-151
-158
-170
-178
-190
-199
-200
-210
-219
-232
-231
-234
-238
-237
-238
-234
-222
-220
-218
-219
-202
-196
-192
-187
-186
-182
-178
-182
-190
-197
-195
-203
-211
-218
-228
-232
-235
-242
-251
-252
-244
-242
-237
-230
-223
-209
-197
-188
-182
-164
-142
-126
-107
-90
-75
-57
-46
-39
-41
-29
-24
-25
-24
-29
-34
-34
-42
-54
-68
-69
-75
-81
-83
-86
-85
-75
-74
-72
-70
-50
-37
-22
-4
14
36
61
80
96
112
136
149
161
172
178
187
195
194
188
186
189
182
176
168
158
155
149
140
129
130
134
134
138
142
147
159
168
175
177
199
216
229
246
258
270
285
292
295
292
301
303
300
298
290
282
280
266
249
230
225
212
199
189
177
169
164
152
139
130
132
125
121
118
113
115
116
109
98
94
95
87
81
72
61
56
47
33
14
4
-5
-19
-32
-45
-56
-59
-67
-74
-84
-75
-69
-67
-59
-54
-46
-34
-28
-23
-23
-10
-5
-4
-2
-7
-11
-11
-23
-38
-55
-61
-75
-90
-105
-123
-138
-151
-171
-192
-208
-213
-225
-233
-239
-244
-242
-239
-240
-241
-233
-219
-210
-197
-185
-173
-155
-142
-134
-131
-121
-111
-107
-104
-104
-106
-101
-105
-112
-125
-120
-124
-131
-134
-141
-146
-145
-150
-154
-161
-151
-147
-143
-134
-130
-122
-107
-101
-97
-92
-77
-68
-60
-53
-50
-44
-38
-41
-49
-54
-50
-56
-60
-65
-72
-73
-76
-84
-94
-94
-87
-85
-78
-70
-60
-40
-23
-8
5
27
51
71
92
110
128
153
169
181
184
204
213
217
222
222
223
228
225
220
211
218
217
215
217
216
220
231
235
240
247
268
283
300
320
337
360
383
399
411
426
449
461
472
482
487
494
496
488
473
466
459
442
425
405
383
369
351
332
311
301
297
292
292
293
297
311
317
323
323
340
349
354
361
364
367
374
372
367
356
362
356
347
341
330
320
315
302
287
274
271
261
252
245
236
232
231
225
218
217
225
225
227
228
225
227
225
216
202
197
194
182
172
160
144
132
116
95
71
55
40
21
6
-13
-30
-39
-56
-73
-94
-97
-103
-108
-108
-109
-106
-96
-93
-92
-95
-81
-77
-75
-71
-71
-69
-65
-69
-75
-80
-76
-79
-84
-87
-92
-91
-88
-91
-95
-92
-79
-73
-64
-53
-43
-25
-7
6
16
39
63
81
98
112
123
137
146
149
146
152
154
148
144
133
121
114
96
74
47
35
17
-3
-20
-38
-53
-61
-77
-93
-112
-110
-118
-125
-128
-133
-135
-135
-143
-155
-167
-171
-184
-197
-212
-230
-246
-262
-286
-314
-337
-351
-374
-394
-414
-433
-444
-456
-470
-486
-488
-485
-486
-482
-477
-469
-455
-441
-429
-420
-398
-379
-364
-346
-332
-318
-297
-285
-276
-271
-253
-242
-235
-225
-220
-214
-202
-202
-204
-210
-197
-193
-185
-169
-151
-122
-82
-40
9
65
134
197
260
321
373
422
461
480
480
471
455
419
374
320
256
193
119
33
-65
-158
-254
-359
-465
-574
-689
-803
-925
-1056
-1198
-1330
-1471
-1621
-1773
-1931
-2092
-2249
-2413
-2578
-2745
-2898
-3053
-3210
-3365
-3523
-3676
-3816
-3958
-4089
-4210
-4300
-4386
-4460
-4520
-4573
-4614
-4650
-4688
-4725
-4756
-4770
-4785
-4785
-4768
-4734
-4675
-4599
-4517
-4429
-4333
-4232
-4145
-4065
-3997
-3941
-3891
-3856
-3836
-3831
-3828
-3835
-3855
-3877
-3906
-3938
-3966
-3998
-4031
-4062
-4066
-4063
-4052
-4024
-3986
-3929
-3847
-3752
-3638
-3505
-3339
-3160
-2968
-2762
-2551
-2332
-2104
-1889
-1679
-1475
-1261
-1065
-879
-702
-539
-383
-237
-109
8
119
232
328
418
501
574
647
715
772
822
877
937
989
1043
1097
1152
1216
1276
1333
1385
1449
1514
1574
1634
1694
1752
1815
1870
1921
1962
2017
2062
2100
2137
2168
2196
2225
2244
2258
2265
2282
2290
2293
2296
2292
2289
2293
2286
2278
2269
2273
2270
2267
2264
2259
2256
2255
2247
2236
2227
2230
2223
2217
2210
2199
2191
2182
2165
2143
2128
2116
2097
2080
2061
2039
2024
2004
1979
1951
1932
1916
1897
1881
1866
1852
1846
1834
1821
1801
1801
1793
1782
1775
1764
1754
1748
1735
1719
1697
1689
1673
1653
1635
1612
1592
1579
1555
1529
1503
1489
1467
1444
1422
1400
1383
1369
1350
1332
1319
1317
1308
1300
1293
1283
1279
1274
1263
1247
1240
1238
1228
1219
1207
1192
1181
1165
1143
1116
1098
1081
1059
1039
1016
993
978
956
933
906
899
887
875
868
860
855
855
850
844
833
839
837
834
833
827
823
823
813
801
788
785
773
759
746
730
718
708
692
674
662
661
653
648
646
645
651
660
665
670
686
707
721
739
756
770
789
804
814
819
831
844
851
859
864
867
877
878
876
868
877
881
882
887
890
897
910
919
927
934
960
978
997
1021
1041
1064
1092
1111
1128
1145
1172
1191
1208
1224
1236
1250
1265
1270
1271
1273
1283
1284
1284
1284
1281
1286
1290
1289
1286
1295
1310
1320
1333
1346
1360
1379
1397
1411
1422
1442
1461
1474
1489
1498
1507
1521
1523
1522
1514
1523
1524
1520
1517
1509
1502
1498
1486
1473
1456
1458
1452
1446
1446
1445
1450
1459
1464
1467
1474
1491
1501
1512
1524
1534
1547
1560
1564
1564
1566
1575
1574
1573
1570
1564
1562
1557
1546
1529
1523
1518
1508
1501
1494
1488
1489
1490
1490
1489
1499
1511
1520
1532
1543
1553
1571
1577
1581
1576
1584
1584
1577
1567
1549
1529
1511
1481
1447
1408
1388
1355
1322
1291
1258
1228
1203
1172
1141
1114
1099
1079
1063
1051
1039
1034
1032
1023
1012
1006
1009
1002
996
989
980
977
970
955
932
919
906
885
866
845
824
808
790
769
745
732
720
704
694
681
672
674
669
665
659
668
673
675
679
679
679
684
677
668
653
655
643
628
613
591
569
548
519
487
455
432
400
369
340
308
281
255
222
187
158
139
111
87
61
34
13
-12
-44
-83
-112
-143
-182
-221
-264
-309
-353
-402
-456
-518
-568
-623
-682
-738
-797
-852
-898
-951
-1004
-1058
-1097
-1137
-1177
-1209
-1242
-1269
-1288
-1314
-1339
-1366
-1375
-1394
-1415
-1434
-1457
-1477
-1497
-1523
-1551
-1579
-1597
-1625
-1653
-1681
-1712
-1738
-1762
-1792
-1823
-1845
-1857
-1874
-1886
-1896
-1906
-1905
-1905
-1907
-1912
-1904
-1892
-1883
-1871
-1860
-1850
-1836
-1826
-1820
-1820
-1807
-1798
-1794
-1788
-1786
-1784
-1776
-1777
-1780
-1786
-1780
-1779
-1779
-1775
-1774
-1768
-1754
-1749
-1743
-1737
-1713
-1698
-1681
-1662
-1645
-1624
-1602
-1586
-1573
-1558
-1534
-1519
-1505
-1492
-1482
-1468
-1455
-1450
-1447
-1438
-1423
-1414
-1404
-1394
-1386
-1369
-1356
-1345
-1337
-1316
-1291
-1269
-1244
-1217
-1188
-1153
-1120
-1088
-1061
-1016
-976
-940
-900
-866
-831
-792
-763
-738
-718
-689
-667
-650
-632
-619
-604
-583
-574
-567
-562
-542
-530
-518
-503
-488
-467
-444
-425
-406
-383
-349
-323
-295
-266
-240
-209
-179
-157
-141
-118
-92
-76
-61
-50
-44
-35
-33
-38
-49
-51
-52
-60
-68
-79
-90
-96
-107
-120
-138
-137
-140
-146
-147
-150
-151
-147
-149
-154
-162
-157
-158
-162
-163
-167
-168
-163
-170
-179
-190
-189
-195
-202
-208
-215
-218
-220
-228
-237
-243
-237
-238
-236
-232
-227
-215
-200
-190
-182
-166
-143
-128
-110
-95
-81
-63
-51
-45
-44
-37
-30
-31
-33
-40
-48
-52
-64
-77
-97
-98
-105
-114
-119
-127
-132
-132
-136
-140
-146
-133
-126
-118
-106
-97
-86
-68
-62
-59
-56
-44
-39
-36
-33
-35
-34
-35
-44
-58
-70
-73
-84
-95
-106
-118
-124
-130
-141
-156
-161
-160
-165
-167
-168
-166
-156
-148
-141
-137
-123
-107
-95
-82
-71
-61
-43
-35
-30
-30
-13
-5
-1
3
2
1
4
1
-5
-15
-9
-11
-15
-17
-24
-29
-30
-42
-55
-67
-68
-76
-83
-90
-100
-107
-114
-132
-154
-174
-186
-209
-232
-256
-285
-311
-340
-376
-419
-453
-483
-520
-553
-586
-617
-640
-664
-689
-714
-728
-737
-748
-754
-758
-759
-748
-743
-738
-738
-720
-709
-701
-691
-685
-678
-666
-662
-661
-665
-652
-651
-653
-653
-658
-660
-659
-664
-671
-675
-667
-665
-660
-652
-646
-633
-617
-605
-595
-578
-550
-528
-504
-480
-460
-435
-415
-402
-395
-380
-364
-356
-347
-342
-340
-335
-334
-338
-347
-348
-348
-351
-351
-353
-352
-341
-338
-335
-335
-317
-303
-291
-275
-260
-243
-219
-204
-189
-180
-153
-137
-125
-112
-104
-96
-87
-88
-93
-97
-94
-98
-103
-108
-115
-118
-119
-125
-132
-132
-120
-115
-105
-94
-82
-63
-45
-32
-23
-2
20
36
53
67
79
95
107
113
114
123
130
132
135
135
134
141
138
133
124
131
134
135
142
148
159
179
192
207
219
253
277
300
328
352
378
405
425
442
459
483
497
509
519
524
532
540
541
539
542
554
559
566
573
580
593
604
611
614
628
647
661
677
693
706
723
735
741
741
750
755
753
751
743
734
729
712
689
658
638
611
580
549
516
485
460
426
393
357
343
321
301
285
269
259
254
246
238
234
241
241
242
243
241
243
246
242
234
230
234
228
222
213
201
195
186
170
149
138
130
116
104
92
80
74
65
56
44
48
51
52
59
63
68
80
84
86
85
95
100
102
107
106
106
111
103
93
79
82
75
67
61
53
49
48
42
35
32
39
39
42
49
56
69
85
95
103
118
139
151
163
172
177
187
191
188
179
179
179
171
162
150
136
127
114
97
76
70
61
48
40
27
16
12
2
-10
-23
-24
-29
-36
-41
-49
-56
-58
-72
-89
-110
-115
-131
-147
-163
-182
-198
-213
-235
-259
-280
-290
-307
-320
-330
-341
-343
-342
-346
-351
-347
-335
-329
-318
-307
-295
-275
-259
-248
-242
-228
-212
-204
-197
-192
-188
-180
-179
-182
-193
-188
-191
-198
-203
-212
-221
-224
-234
-244
-255
-252
-253
-254
-250
-249
-244
-230
-225
-219
-213
-192
-178
-165
-152
-143
-132
-121
-119
-122
-123
-114
-117
-120
-123
-130
-134
-138
-150
-167
-177
-180
-191
-198
-205
-211
-209
-210
-213
-218
-211
-200
-192
-182
-171
-160
-142
-129
-120
-119
-102
-94
-92
-88
-89
-91
-90
-96
-106
-120
-121
-130
-141
-149
-161
-169
-170
-180
-190
-199
-193
-194
-193
-190
-188
-181
-172
-168
-165
-159
-144
-138
-131
-125
-123
-118
-114
-118
-128
-131
-130
-137
-142
-149
-158
-160
-167
-177
-191
-196
-197
-201
-201
-201
-199
-187
-181
-176
-175
-155
-141
-129
-113
-101
-87
-69
-57
-48
-43
-25
-17
-13
-7
-8
-6
0
-5
-11
-18
-14
-16
-19
-21
-24
-21
-15
-15
-15
-9
8
19
31
44
53
69
82
88
89
98
111
116
121
123
123
128
126
117
102
92
83
67
53
36
18
9
-8
-25
-48
-51
-58
-67
-71
-74
-73
-65
-60
-56
-54
-34
-22
-13
-1
6
16
29
33
33
33
41
41
38
34
27
23
19
8
-6
-16
-16
-23
-30
-35
-42
-40
-38
-40
-43
-33
-17
-6
10
26
42
64
82
95
105
123
140
152
165
173
178
188
187
182
169
172
169
162
158
153
149
152
148
145
139
153
158
164
174
182
193
209
218
225
232
247
253
258
262
262
265
267
259
245
234
229
213
198
180
159
143
125
101
73
57
46
28
14
1
-12
-18
-24
-32
-40
-39
-35
-35
-33
-35
-38
-33
-39
-47
-60
-57
-61
-68
-74
-82
-89
-92
-104
-116
-134
-131
-140
-148
-153
-159
-161
-158
-160
-162
-162
-150
-144
-135
-123
-113
-97
-79
-68
-61
-50
-33
-24
-16
-9
-4
7
15
18
16
24
33
35
40
44
49
60
68
72
73
85
97
107
122
138
161
198
235
279
327
397
465
532
601
664
723
780
817
841
848
860
848
825
796
756
713
666
608
541
470
403
326
248
169
86
4
-81
-180
-289
-399
-508
-633
-761
-894
-1032
-1168
-1313
-1465
-1622
-1767
-1909
-2056
-2200
-2346
-2493
-2634
-2773
-2909
-3039
-3145
-3244
-3337
-3417
-3490
-3554
-3606
-3664
-3722
-3781
-3821
-3859
-3887
-3898
-3896
-3875
-3830
-3782
-3728
-3674
-3606
-3558
-3523
-3500
-3495
-3502
-3522
-3558
-3607
-3664
-3720
-3788
-3857
-3926
-3999
-4068
-4134
-4203
-4267
-4315
-4342
-4364
-4372
-4367
-4348
-4306
-4249
-4177
-4088
-3967
-3823
-3666
-3492
-3306
-3112
-2909
-2707
-2509
-2319
-2119
-1928
-1749
-1575
-1415
-1262
-1110
-972
-842
-721
-594
-479
-372
-271
-178
-89
3
80
152
218
300
369
436
503
567
632
698
757
812
869
936
994
1051
1108
1161
1218
1273
1319
1359
1405
1456
1496
1536
1573
1605
1640
1668
1689
1702
1724
1745
1758
1772
1783
1794
1809
1818
1824
1824
1840
1849
1855
1864
1870
1878
1892
1899
1905
1908
1922
1930
1935
1942
1944
1947
1957
1954
1948
1938
1943
1937
1929
1922
1911
1904
1898
1887
1874
1864
1865
1857
1850
1843
1832
1825
1818
1802
1783
1770
1764
1750
1737
1723
1707
1695
1678
1656
1629
1610
1591
1564
1537
1507
1475
1447
1412
1375
1331
1305
1274
1241
1213
1184
1158
1140
1119
1099
1077
1071
1060
1049
1041
1031
1025
1028
1020
1011
1001
1004
999
994
989
982
979
977
970
960
953
956
951
947
943
937
938
939
936
931
936
948
954
963
971
978
991
1000
1005
1007
1019
1034
1044
1055
1063
1071
1085
1091
1094
1089
1102
1107
1109
1114
1115
1117
1123
1122
1119
1113
1122
1124
1125
1131
1134
1141
1155
1159
1161
1164
1178
1186
1194
1203
1209
1220
1231
1235
1236
1239
1252
1255
1258
1259
1257
1260
1261
1255
1246
1246
1250
1248
1249
1250
1251
1259
1265
1268
1270
1282
1296
1306
1318
1327
1336
1351
1358
1362
1359
1374
1382
1385
1390
1391
1391
1393
1387
1378
1363
1364
1356
1347
1342
1333
1327
1327
1319
1310
1304
1310
1311
1313
1319
1323
1334
1346
1352
1355
1362
1378
1386
1395
1403
1408
1418
1426
1427
1424
1428
1434
1431
1429
1424
1416
1414
1408
1397
1383
1377
1375
1369
1366
1363
1360
1368
1368
1368
1362
1375
1381
1383
1386
1384
1383
1385
1378
1368
1354
1356
1348
1338
1331
1318
1306
1297
1279
1259
1241
1233
1220
1207
1197
1185
1178
1174
1164
1152
1147
1152
1150
1151
1154
1154
1162
1167
1166
1160
1163
1169
1168
1167
1164
1158
1156
1151
1141
1126
1118
1110
1097
1087
1073
1060
1055
1042
1030
1014
1017
1016
1014
1017
1018
1023
1034
1038
1041
1040
1059
1067
1073
1080
1083
1085
1090
1084
1075
1065
1063
1053
1043
1031
1015
1002
989
968
943
924
915
900
889
879
870
868
864
856
844
844
846
840
837
831
822
815
803
784
759
740
716
684
651
611
569
533
484
431
372
326
275
219
166
110
58
13
-38
-86
-136
-164
-199
-234
-263
-293
-320
-342
-370
-399
-425
-441
-465
-489
-514
-543
-570
-598
-634
-675
-712
-741
-779
-815
-851
-889
-920
-953
-990
-1030
-1056
-1078
-1103
-1123
-1142
-1159
-1169
-1181
-1194
-1212
-1219
-1228
-1242
-1254
-1270
-1286
-1294
-1314
-1337
-1365
-1381
-1404
-1430
-1454
-1481
-1506
-1525
-1553
-1580
-1611
-1621
-1640
-1659
-1673
-1686
-1694
-1696
-1700
-1702
-1700
-1686
-1677
-1667
-1655
-1647
-1634
-1622
-1617
-1615
-1608
-1594
-1589
-1583
-1580
-1580
-1576
-1575
-1581
-1591
-1591
-1587
-1589
-1588
-1586
-1583
-1576
-1569
-1565
-1562
-1543
-1525
-1508
-1484
-1462
-1439
-1407
-1384
-1363
-1347
-1318
-1295
-1275
-1253
-1236
-1219
-1197
-1187
-1180
-1178
-1159
-1152
-1146
-1139
-1134
-1126
-1115
-1108
-1102
-1092
-1071
-1055
-1036
-1014
-992
-962
-930
-903
-878
-846
-807
-776
-745
-715
-689
-657
-632
-612
-599
-577
-555
-541
-528
-518
-511
-501
-496
-496
-501
-491
-486
-484
-477
-473
-465
-449
-440
-430
-422
-401
-383
-367
-349
-335
-320
-299
-292
-288
-290
-277
-276
-278
-278
-282
-283
-284
-291
-300
-309
-307
-314
-318
-322
-326
-324
-319
-320
-322
-314
-297
-286
-270
-254
-238
-214
-193
-178
-168
-149
-129
-117
-106
-99
-96
-90
-91
-98
-112
-112
-118
-128
-135
-147
-158
-164
-176
-190
-205
-206
-211
-215
-214
-216
-214
-203
-202
-202
-202
-188
-182
-178
-173
-171
-167
-163
-167
-176
-184
-184
-193
-202
-212
-224
-232
-240
-256
-275
-286
-291
-302
-309
-317
-323
-321
-320
-321
-323
-314
-301
-292
-281
-270
-260
-245
-236
-231
-233
-219
-214
-215
-214
-219
-225
-228
-240
-253
-270
-273
-282
-292
-298
-307
-312
-310
-317
-323
-328
-319
-314
-308
-300
-292
-280
-266
-260
-257
-253
-239
-236
-234
-234
-238
-238
-241
-252
-270
-280
-287
-302
-314
-327
-342
-351
-363
-380
-402
-417
-431
-451
-471
-492
-514
-528
-549
-573
-604
-617
-638
-663
-685
-711
-735
-754
-779
-806
-836
-852
-875
-900
-923
-950
-975
-992
-1019
-1045
-1071
-1083
-1099
-1113
-1123
-1134
-1137
-1135
-1139
-1142
-1139
-1123
-1112
-1098
-1081
-1065
-1042
-1020
-1005
-996
-978
-956
-942
-927
-914
-903
-888
-878
-873
-874
-867
-859
-854
-846
-840
-831
-813
-801
-789
-782
-755
-734
-714
-690
-666
-639
-606
-577
-550
-525
-485
-455
-428
-399
-377
-354
-328
-312
-300
-288
-268
-256
-245
-235
-228
-218
-206
-202
-201
-194
-177
-168
-156
-145
-134
-118
-102
-91
-83
-64
-41
-23
-1
20
41
66
87
101
110
125
140
148
157
162
165
176
175
171
161
167
166
161
158
153
150
152
148
143
134
144
145
147
153
156
162
175
180
185
191
207
217
228
239
247
258
271
275
276
279
291
293
296
297
296
300
301
298
291
295
303
306
312
319
327
341
353
363
371
388
408
423
440
454
467
488
498
504
504
519
525
528
530
528
525
526
519
508
491
492
481
469
461
448
440
435
425
415
408
413
413
414
417
419
427
438
442
443
447
459
461
464
465
463
465
463
455
440
436
433
422
414
404
394
389
383
375
365
367
371
371
377
381
389
406
415
423
427
446
459
468
477
483
488
498
496
492
481
488
481
471
462
447
435
423
404
383
364
354
338
324
312
298
290
285
275
264
260
266
265
267
270
270
277
279
275
265
265
266
259
252
243
232
224
212
195
173
162
149
131
117
101
87
81
67
53
36
34
28
23
22
19
20
29
29
28
23
35
35
33
32
25
19
12
-2
-21
-41
-53
-74
-96
-118
-143
-165
-185
-213
-243
-267
-281
-301
-318
-333
-347
-352
-358
-367
-380
-379
-375
-377
-375
-376
-377
-375
-377
-384
-397
-398
-405
-418
-430
-449
-468
-482
-506
-532
-562
-579
-601
-624
-643
-665
-682
-690
-707
-722
-738
-732
-734
-733
-727
-721
-710
-696
-687
-681
-671
-652
-640
-628
-616
-608
-596
-584
-580
-581
-575
-562
-558
-552
-546
-541
-528
-518
-511
-506
-488
-466
-446
-423
-398
-371
-337
-306
-275
-250
-209
-174
-144
-113
-86
-60
-29
-7
11
24
48
64
76
88
94
102
114
114
112
108
119
122
126
131
135
145
157
164
171
180
201
214
228
241
249
261
271
273
270
272
279
277
275
270
261
259
253
242
227
223
221
214
208
202
195
195
191
185
175
185
192
197
207
214
224
240
249
256
259
274
282
286
292
292
293
298
290
278
264
262
250
239
228
214
204
197
183
167
155
155
148
143
141
138
144
151
154
154
164
179
187
197
205
211
223
230
231
227
231
235
231
227
218
209
205
194
180
160
160
154
144
140
133
128
129
125
121
117
128
135
142
154
163
174
190
195
198
198
209
212
215
218
218
220
221
213
201
192
192
182
174
166
156
152
148
139
126
124
128
127
130
135
141
154
166
175
180
195
211
222
232
239
245
257
260
259
248
255
251
242
235
224
214
207
194
181
165
166
160
153
151
144
142
146
143
140
139
150
156
163
169
173
178
184
182
176
172
177
173
167
160
147
136
122
98
69
48
30
4
-18
-41
-63
-77
-93
-112
-132
-143
-149
-156
-159
-161
-161
-153
-152
-155
-165
-158
-160
-168
-174
-185
-196
-205
-220
-239
-262
-269
-286
-304
-319
-338
-353
-362
-379
-396
-410
-411
-418
-423
-427
-432
-432
-428
-430
-433
-428
-408
-392
-368
-336
-298
-248
-195
-145
-96
-37
24
73
118
155
180
199
201
188
163
139
111
76
41
0
-45
-85
-138
-196
-259
-304
-357
-415
-474
-542
-615
-692
-785
-888
-1003
-1106
-1225
-1352
-1482
-1621
-1757
-1890
-2030
-2170
-2308
-2438
-2575
-2710
-2842
-2971
-3088
-3193
-3295
-3390
-3469
-3530
-3591
-3646
-3701
-3758
-3806
-3852
-3898
-3935
-3947
-3939
-3923
-3889
-3846
-3798
-3745
-3702
-3676
-3669
-3670
-3686
-3725
-3776
-3841
-3915
-3991
-4085
-4184
-4288
-4374
-4463
-4552
-4633
-4708
-4769
-4810
-4845
-4867
-4881
-4860
-4834
-4792
-4728
-4647
-4541
-4411
-4266
-4104
-3922
-3719
-3513
-3301
-3085
-2870
-2651
-2430
-2219
-2015
-1813
-1610
-1422
-1240
-1065
-897
-728
-568
-420
-282
-138
1
128
251
367
478
587
689
783
868
959
1046
1126
1207
1281
1355
1434
1501
1564
1622
1693
1758
1820
1884
1943
2002
2066
2119
2168
2209
2267
2312
2352
2393
2429
2465
2501
2527
2549
2569
2595
2609
2621
2631
2636
2643
2650
2649
2643
2642
2649
2646
2644
2641
2637
2640
2641
2636
2628
2631
2637
2637
2638
2638
2637
2640
2641
2637
2629
2632
2632
2627
2625
2617
2608
2604
2590
2572
2551
2542
2529
2513
2499
2481
2465
2456
2436
2416
2392
2389
2376
2363
2353
2341
2332
2324
2309
2292
2277
2270
2255
2241
2227
2209
2197
2184
2164
2138
2117
2101
2074
2048
2020
1989
1965
1937
1903
1864
1836
1809
1775
1742
1709
1674
1645
1613
1579
1540
1516
1487
1453
1422
1387
1353
1325
1289
1252
1213
1188
1158
1128
1100
1069
1040
1019
987
955
923
908
886
865
846
825
808
792
772
749
728
719
702
686
673
657
648
638
623
604
593
589
579
572
566
559
560
557
549
537
535
535
529
524
519
514
514
511
504
492
495
493
486
481
471
462
459
450
440
427
427
421
413
408
399
395
399
392
386
379
390
392
394
398
400
406
413
414
414
416
428
431
435
441
443
450
456
454
449
453
464
468
477
485
494
510
522
531
537
554
573
589
608
626
645
670
690
707
717
743
763
777
795
809
822
839
846
850
849
858
860
858
859
855
854
860
856
852
850
863
870
879
890
900
916
935
950
963
980
1009
1028
1049
1069
1087
1110
1131
1143
1151
1166
1185
1196
1207
1215
1221
1231
1236
1234
1228
1232
1237
1237
1239
1241
1245
1256
1262
1267
1266
1286
1301
1314
1331
1346
1362
1385
1400
1413
1421
1442
1453
1461
1470
1473
1477
1485
1482
1475
1466
1467
1460
1450
1441
1429
1422
1417
1407
1396
1390
1397
1396
1398
1403
1407
1416
1426
1430
1430
1440
1455
1464
1474
1484
1490
1500
1505
1504
1499
1501
1505
1504
1502
1499
1496
1499
1494
1487
1474
1480
1479
1477
1480
1482
1487
1497
1504
1511
1514
1535
1548
1558
1572
1582
1594
1610
1615
1616
1615
1622
1619
1614
1608
1597
1588
1579
1561
1539
1519
1508
1487
1468
1450
1430
1416
1401
1383
1361
1350
1344
1331
1320
1307
1291
1280
1265
1243
1217
1197
1176
1148
1119
1084
1045
1010
964
912
851
806
751
692
635
573
511
453
386
318
246
194
134
75
20
-36
-88
-135
-190
-247
-302
-347
-398
-449
-498
-548
-594
-638
-689
-744
-794
-836
-887
-937
-986
-1038
-1083
-1128
-1178
-1231
-1272
-1308
-1349
-1385
-1421
-1454
-1479
-1503
-1527
-1552
-1565
-1575
-1588
-1597
-1609
-1620
-1624
-1637
-1653
-1674
-1680
-1693
-1710
-1726
-1746
-1766
-1783
-1809
-1837
-1871
-1884
-1907
-1930
-1948
-1967
-1982
-1992
-2007
-2021
-2030
-2026
-2025
-2021
-2013
-2006
-1992
-1976
-1967
-1961
-1951
-1933
-1923
-1912
-1903
-1896
-1886
-1880
-1883
-1892
-1892
-1893
-1902
-1909
-1920
-1930
-1936
-1942
-1951
-1961
-1960
-1956
-1954
-1948
-1942
-1932
-1913
-1901
-1890
-1884
-1862
-1845
-1832
-1817
-1804
-1791
-1773
-1765
-1759
-1758
-1739
-1731
-1724
-1715
-1710
-1702
-1692
-1687
-1684
-1678
-1660
-1646
-1630
-1610
-1591
-1566
-1538
-1515
-1493
-1464
-1426
-1394
-1359
-1325
-1293
-1257
-1225
-1202
-1186
-1161
-1137
-1122
-1108
-1098
-1090
-1080
-1073
-1071
-1076
-1070
-1066
-1066
-1064
-1064
-1063
-1052
-1049
-1045
-1044
-1026
-1010
-995
-976
-959
-938
-910
-893
-877
-865
-836
-818
-803
-787
-776
-764
-754
-751
-753
-755
-748
-749
-750
-751
-754
-752
-749
-753
-759
-757
-746
-740
-730
-718
-705
-684
-663
-646
-632
-606
-577
-554
-529
-506
-485
-462
-444
-431
-427
-413
-404
-401
-397
-398
-399
-393
-395
-400
-409
-404
-404
-405
-401
-399
-393
-378
-371
-363
-357
-331
-315
-299
-281
-266
-250
-233
-223
-217
-211
-196
-191
-187
-184
-186
-184
-184
-190
-200
-203
-198
-200
-200
-199
-199
-191
-185
-182
-181
-168
-151
-137
-119
-99
-79
-54
-32
-12
1
27
48
63
81
93
104
120
125
127
123
128
127
122
119
113
108
109
99
88
74
76
70
64
59
52
50
52
48
44
42
51
52
54
56
55
59
61
55
46
42
46
42
39
34
26
24
17
6
-10
-14
-16
-22
-26
-31
-35
-34
-35
-38
-46
-34
-26
-20
-9
1
12
30
41
51
56
73
83
89
97
100
104
113
109
102
91
94
87
79
72
62
57
53
43
32
24
28
23
21
20
19
25
32
35
35
43
58
65
74
81
86
97
102
103
98
102
106
105
104
102
98
98
92
82
66
67
62
54
50
44
40
41
36
31
25
34
39
44
53
59
68
82
83
80
74
78
73
67
60
50
43
37
24
8
-6
-10
-22
-33
-43
-54
-59
-63
-73
-84
-86
-82
-84
-81
-79
-76
-65
-56
-50
-46
-32
-17
-8
3
10
17
30
34
35
28
39
41
39
39
34
28
27
19
10
-2
1
-2
-5
-3
-4
-2
9
10
12
16
33
44
57
71
82
97
113
120
124
129
143
146
149
149
144
143
139
128
111
101
94
80
68
55
42
37
28
18
6
5
8
9
13
16
20
33
39
43
40
56
62
64
68
66
64
64
56
44
28
28
17
4
-7
-22
-34
-41
-57
-74
-88
-90
-98
-103
-104
-106
-102
-94
-94
-95
-92
-78
-74
-70
-67
-68
-64
-64
-72
-86
-92
-97
-111
-123
-138
-154
-164
-179
-199
-222
-237
-251
-269
-284
-300
-314
-317
-327
-337
-350
-344
-342
-342
-340
-339
-337
-331
-333
-338
-348
-343
-350
-361
-371
-388
-405
-419
-443
-468
-492
-506
-526
-544
-562
-581
-596
-607
-624
-641
-651
-649
-653
-652
-649
-646
-635
-625
-620
-620
-610
-597
-592
-585
-580
-578
-572
-569
-572
-579
-579
-579
-583
-583
-585
-585
-575
-574
-574
-577
-562
-551
-541
-526
-511
-493
-468
-450
-432
-415
-377
-345
-310
-267
-220
-162
-93
-24
47
122
205
278
345
406
454
495
527
541
542
540
541
529
514
495
466
437
400
354
302
261
222
175
130
79
21
-39
-110
-193
-288
-380
-482
-597
-719
-850
-986
-1118
-1263
-1414
-1574
-1724
-1883
-2048
-2211
-2373
-2527
-2665
-2804
-2934
-3059
-3154
-3251
-3342
-3425
-3511
-3597
-3684
-3780
-3880
-3977
-4057
-4134
-4196
-4241
-4274
-4290
-4298
-4310
-4325
-4340
-4354
-4386
-4424
-4473
-4533
-4597
-4673
-4762
-4864
-4957
-5049
-5147
-5240
-5327
-5405
-5467
-5516
-5547
-5562
-5544
-5505
-5446
-5361
-5256
-5126
-4965
-4790
-4595
-4385
-4146
-3897
-3640
-3375
-3109
-2840
-2564
-2303
-2047
-1803
-1549
-1315
-1092
-875
-670
-470
-277
-98
69
228
389
534
671
803
925
1047
1163
1267
1361
1455
1552
1636
1717
1792
1861
1934
2000
2059
2111
2174
2237
2292
2349
2403
2455
2508
2558
2602
2639
2688
2733
2771
2810
2843
2875
2912
2938
2960
2976
3003
3023
3039
3054
3064
3072
3086
3086
3083
3075
3083
3082
3080
3081
3080
3082
3085
3083
3077
3073
3078
3074
3070
3066
3058
3054
3049
3037
3019
3008
3001
2985
2967
2946
2921
2900
2873
2838
2797
2766
2736
2699
2664
2628
2592
2562
2529
2494
2455
2434
2409
2381
2358
2331
2306
2288
2263
2237
2207
2191
2169
2145
2123
2097
2071
2052
2021
1987
1951
1931
1902
1872
1844
1813
1785
1758
1725
1691
1659
1639
1611
1587
1564
1540
1522
1505
1480
1453
1432
1416
1392
1371
1348
1325
1308
1288
1265
1237
1220
1205
1185
1167
1148
1129
1116
1099
1079
1054
1047
1035
1020
1009
994
982
975
961
945
927
922
911
899
889
874
862
856
838
819
800
797
786
777
770
762
758
756
749
741
735
741
739
738
738
736
740
743
738
730
729
734
730
728
725
721
722
719
709
695
690
687
677
670
663
657
659
656
652
644
656
662
665
673
679
686
698
704
709
712
728
735
740
745
745
747
755
752
746
740
746
746
744
743
738
736
735
727
717
711
717
715
716
719
720
726
732
731
727
732
743
746
753
758
763
774
781
783
781
789
797
800
806
810
816
829
835
838
835
849
857
862
871
880
891
908
920
932
941
967
985
1002
1023
1040
1061
1087
1104
1119
1135
1159
1175
1189
1202
1210
1221
1232
1236
1237
1243
1260
1268
1278
1289
1298
1313
1328
1339
1348
1369
1395
1415
1439
1460
1480
1504
1525
1541
1553
1575
1599
1618
1639
1657
1674
1698
1713
1724
1729
1749
1763
1773
1786
1796
1807
1822
1830
1836
1839
1859
1869
1880
1895
1907
1922
1944
1957
1968
1979
1999
2010
2020
2030
2034
2041
2047
2043
2033
2026
2025
2014
2001
1986
1967
1951
1931
1905
1874
1854
1838
1817
1800
1784
1767
1758
1747
1733
1718
1713
1711
1704
1699
1691
1683
1681
1670
1654
1631
1624
1608
1586
1566
1540
1514
1490
1456
1418
1374
1348
1309
1269
1232
1191
1153
1121
1082
1041
1003
976
944
913
885
855
829
805
772
734
699
670
631
591
549
503
460
414
361
303
253
205
149
94
38
-19
-71
-124
-179
-235
-280
-321
-364
-401
-437
-472
-496
-528
-560
-596
-616
-640
-667
-692
-721
-749
-774
-809
-847
-892
-920
-961
-1004
-1046
-1092
-1136
-1177
-1225
-1275
-1324
-1361
-1405
-1445
-1482
-1518
-1547
-1571
-1598
-1626
-1646
-1654
-1668
-1680
-1690
-1702
-1707
-1715
-1728
-1747
-1756
-1763
-1779
-1794
-1812
-1831
-1846
-1864
-1886
-1912
-1926
-1941
-1960
-1975
-1993
-2009
-2015
-2029
-2042
-2056
-2052
-2049
-2044
-2035
-2027
-2015
-1997
-1987
-1980
-1976
-1954
-1942
-1933
-1922
-1916
-1909
-1902
-1904
-1911
-1919
-1917
-1924
-1931
-1937
-1947
-1950
-1951
-1959
-1968
-1971
-1964
-1964
-1959
-1951
-1943
-1924
-1907
-1892
-1881
-1857
-1832
-1813
-1792
-1772
-1753
-1731
-1713
-1700
-1693
-1677
-1665
-1661
-1655
-1654
-1655
-1648
-1651
-1656
-1664
-1658
-1657
-1658
-1655
-1653
-1648
-1633
-1626
-1616
-1607
-1577
-1554
-1531
-1504
-1481
-1455
-1430
-1412
-1398
-1384
-1362
-1349
-1337
-1325
-1319
-1309
-1301
-1302
-1308
-1308
-1302
-1303
-1301
-1298
-1295
-1284
-1275
-1267
-1264
-1247
-1225
-1208
-1187
-1165
-1143
-1115
-1091
-1070
-1056
-1031
-1012
-1000
-986
-978
-972
-960
-958
-960
-966
-961
-963
-969
-974
-985
-995
-999
-1014
-1028
-1042
-1038
-1040
-1041
-1038
-1035
-1025
-1010
-999
-987
-971
-942
-920
-897
-874
-855
-833
-812
-799
-791
-778
-760
-752
-742
-736
-733
-724
-719
-720
-725
-721
-713
-712
-707
-703
-697
-685
-676
-669
-666
-647
-631
-618
-600
-583
-563
-536
-516
-497
-482
-454
-433
-415
-395
-379
-361
-336
-323
-311
-300
-274
-256
-240
-222
-207
-187
-166
-151
-138
-120
-92
-71
-49
-25
-3
24
52
72
90
114
143
162
182
200
213
230
240
242
237
240
242
238
234
226
217
212
201
187
166
164
156
147
143
137
135
140
140
141
141
156
165
174
187
196
208
225
230
233
231
241
242
239
237
231
227
223
213
199
187
185
175
167
159
151
149
148
142
134
136
146
149
155
161
166
179
188
193
193
201
211
215
218
219
218
221
216
206
189
190
184
174
168
158
149
145
134
122
108
110
107
104
105
105
110
122
126
129
133
149
159
168
177
182
190
198
199
195
193
199
195
190
184
174
169
162
150
134
126
124
114
108
101
93
94
92
89
86
93
104
112
123
133
144
161
169
175
175
191
200
203
207
207
205
206
198
187
170
169
158
145
135
121
110
105
92
78
65
65
61
60
61
63
71
82
87
90
95
109
113
115
117
114
114
111
98
80
68
59
40
24
5
-15
-28
-45
-64
-86
-98
-106
-118
-126
-135
-143
-142
-148
-155
-165
-155
-152
-150
-146
-145
-143
-137
-137
-140
-148
-139
-141
-145
-147
-154
-160
-161
-172
-185
-196
-198
-204
-210
-213
-217
-217
-214
-218
-224
-224
-214
-209
-201
-191
-180
-161
-144
-132
-125
-108
-90
-79
-68
-60
-54
-44
-38
-38
-43
-42
-41
-45
-46
-52
-57
-53
-58
-64
-74
-66
-63
-62
-59
-60
-59
-54
-56
-57
-59
-38
-21
1
33
69
116
171
223
276
332
395
447
494
536
563
583
594
588
572
557
547
525
501
474
441
408
369
320
266
224
183
131
76
14
-57
-133
-222
-324
-436
-546
-663
-790
-916
-1048
-1179
-1304
-1438
-1575
-1717
-1846
-1983
-2122
-2258
-2391
-2516
-2630
-2746
-2854
-2954
-3028
-3110
-3194
-3274
-3359
-3437
-3506
-3568
-3616
-3644
-3645
-3636
-3615
-3587
-3561
-3537
-3523
-3529
-3552
-3584
-3623
-3683
-3755
-3840
-3938
-4040
-4152
-4272
-4401
-4521
-4640
-4764
-4880
-4990
-5089
-5170
-5237
-5291
-5330
-5338
-5324
-5291
-5229
-5145
-5035
-4892
-4735
-4560
-4373
-4160
-3941
-3717
-3487
-3257
-3024
-2787
-2563
-2343
-2133
-1910
-1703
-1504
-1309
-1124
-942
-764
-600
-446
-296
-145
-8
122
245
360
474
582
677
764
852
945
1026
1105
1180
1251
1326
1394
1455
1509
1574
1640
1699
1759
1818
1874
1932
1984
2030
2068
2117
2159
2194
2229
2258
2284
2314
2332
2344
2350
2364
2371
2372
2372
2368
2363
2364
2352
2340
2323
2325
2316
2306
2298
2289
2285
2283
2277
2270
2265
2271
2269
2267
2266
2263
2263
2263
2255
2243
2237
2236
2226
2217
2205
2189
2179
2164
2143
2118
2103
2090
2072
2056
2039
2023
2011
1996
1978
1956
1950
1941
1928
1920
1908
1896
1890
1876
1860
1840
1832
1820
1806
1795
1781
1769
1764
1748
1731
1711
1707
1694
1681
1670
1657
1649
1642
1630
1616
1603
1601
1591
1582
1574
1565
1561
1558
1550
1538
1532
1533
1526
1519
1511
1501
1498
1492
1481
1466
1463
1461
1454
1449
1441
1432
1429
1422
1413
1400
1405
1405
1403
1404
1403
1402
1407
1406
1401
1393
1399
1399
1397
1398
1394
1392
1395
1386
1374
1360
1360
1352
1344
1338
1331
1328
1326
1318
1307
1297
1296
1287
1278
1268
1255
1245
1234
1213
1187
1165
1148
1120
1093
1063
1030
1004
972
934
892
858
825
787
750
713
677
648
615
581
542
522
496
468
444
417
393
376
354
332
309
302
290
278
270
258
249
245
231
215
198
195
185
175
167
157
150
146
136
124
116
121
119
120
123
125
132
139
141
139
146
157
162
169
176
182
195
204
208
209
218
228
232
237
240
243
254
258
260
257
274
286
295
309
320
334
355
372
389
404
435
458
481
507
528
552
581
601
620
639
669
691
712
733
750
769
788
798
805
815
834
846
860
875
889
909
929
945
957
979
1007
1028
1053
1077
1100
1129
1154
1174
1190
1212
1236
1253
1270
1284
1298
1316
1325
1330
1326
1339
1344
1346
1350
1352
1354
1361
1363
1364
1362
1378
1386
1392
1403
1410
1421
1437
1445
1450
1456
1472
1479
1484
1489
1489
1491
1492
1486
1475
1466
1467
1458
1449
1440
1428
1421
1411
1394
1373
1362
1354
1340
1329
1317
1305
1298
1289
1276
1261
1254
1250
1241
1234
1225
1217
1215
1204
1190
1169
1163
1149
1130
1113
1092
1071
1054
1028
998
962
943
912
879
848
813
781
754
721
688
658
640
616
594
573
549
530
513
488
459
435
419
394
370
343
312
285
253
214
169
134
101
60
21
-20
-62
-99
-139
-183
-229
-264
-296
-330
-359
-389
-416
-433
-459
-486
-517
-532
-553
-575
-596
-618
-640
-658
-685
-716
-754
-773
-804
-837
-867
-901
-931
-958
-989
-1021
-1051
-1069
-1091
-1111
-1127
-1143
-1152
-1157
-1166
-1175
-1176
-1167
-1164
-1158
-1152
-1149
-1139
-1133
-1132
-1136
-1129
-1121
-1121
-1121
-1125
-1131
-1136
-1143
-1155
-1172
-1179
-1186
-1197
-1205
-1216
-1226
-1227
-1237
-1247
-1260
-1257
-1258
-1260
-1258
-1259
-1258
-1252
-1257
-1265
-1278
-1274
-1282
-1293
-1303
-1316
-1328
-1339
-1358
-1379
-1400
-1411
-1430
-1449
-1469
-1490
-1506
-1520
-1540
-1561
-1576
-1580
-1590
-1596
-1599
-1601
-1594
-1588
-1585
-1585
-1572
-1557
-1549
-1540
-1533
-1529
-1521
-1516
-1516
-1522
-1517
-1515
-1520
-1521
-1527
-1534
-1534
-1543
-1554
-1567
-1564
-1565
-1565
-1561
-1559
-1552
-1536
-1528
-1519
-1512
-1484
-1464
-1443
-1420
-1398
-1373
-1347
-1328
-1314
-1299
-1276
-1262
-1250
-1238
-1230
-1220
-1210
-1208
-1210
-1207
-1196
-1194
-1189
-1184
-1179
-1165
-1152
-1142
-1134
-1112
-1086
-1065
-1039
-1013
-986
-954
-924
-898
-877
-844
-815
-792
-768
-750
-734
-713
-702
-695
-693
-678
-669
-661
-652
-647
-638
-622
-617
-611
-607
-583
-566
-548
-525
-504
-479
-450
-428
-407
-384
-351
-326
-302
-278
-258
-235
-214
-202
-196
-186
-172
-168
-163
-161
-162
-157
-157
-161
-170
-169
-165
-166
-165
-163
-160
-152
-144
-138
-136
-117
-101
-88
-71
-56
-41
-20
-6
5
12
30
42
50
59
62
65
73
68
60
50
56
53
49
47
44
45
48
47
45
48
64
75
89
106
122
146
171
189
203
223
248
263
279
293
304
320
329
331
327
332
340
345
357
376
402
440
477
515
547
594
631
658
681
690
690
684
660
625
579
540
489
429
363
284
199
116
17
-88
-200
-304
-418
-534
-655
-788
-931
-1087
-1262
-1449
-1640
-1827
-2026
-2225
-2423
-2623
-2818
-3017
-3224
-3434
-3631
-3817
-4004
-4180
-4345
-4498
-4629
-4749
-4857
-4953
-5029
-5094
-5160
-5224
-5289
-5357
-5422
-5495
-5563
-5620
-5635
-5628
-5596
-5533
-5451
-5348
-5226
-5102
-4978
-4859
-4731
-4621
-4531
-4461
-4420
-4399
-4393
-4416
-4454
-4499
-4533
-4572
-4603
-4617
-4613
-4584
-4530
-4462
-4374
-4263
-4125
-3983
-3830
-3667
-3499
-3320
-3139
-2962
-2788
-2605
-2419
-2242
-2064
-1892
-1727
-1560
-1401
-1250
-1106
-954
-802
-655
-506
-361
-218
-72
63
192
311
446
571
689
806
916
1024
1133
1233
1327
1415
1514
1603
1687
1773
1853
1933
2016
2088
2154
2218
2289
2351
2409
2465
2515
2564
2611
2647
2674
2699
2727
2739
2745
2743
2733
2721
2703
2672
2634
2601
2570
2531
2492
2452
2411
2377
2339
2298
2256
2225
2196
2164
2136
2107
2079
2061
2035
2009
1979
1969
1952
1933
1917
1897
1877
1861
1836
1807
1774
1756
1730
1702
1679
1652
1629
1612
1589
1565
1545
1536
1524
1514
1507
1501
1501
1505
1503
1500
1502
1515
1520
1526
1533
1537
1546
1552
1550
1542
1543
1545
1538
1530
1519
1505
1495
1481
1464
1444
1433
1424
1410
1399
1385
1373
1369
1357
1344
1328
1330
1327
1322
1322
1319
1319
1324
1322
1318
1310
1320
1319
1316
1316
1310
1307
1305
1294
1280
1265
1259
1245
1232
1220
1204
1193
1184
1168
1149
1135
1130
1116
1104
1094
1083
1078
1073
1063
1050
1048
1049
1043
1039
1035
1029
1029
1025
1019
1008
1006
1004
998
994
987
980
981
973
964
950
952
949
942
937
929
922
919
908
896
879
883
878
873
872
868
867
870
867
862
860
868
870
873
876
877
881
886
882
874
871
876
873
870
868
866
869
871
867
858
860
863
860
860
859
858
863
868
869
869
880
892
900
911
919
927
944
952
959
961
978
988
994
1001
1003
1005
1011
1008
1004
994
1004
1001
998
996
992
990
991
987
983
984
997
1005
1016
1030
1043
1061
1081
1093
1101
1116
1138
1151
1165
1179
1190
1206
1216
1219
1215
1221
1228
1227
1227
1225
1221
1222
1219
1211
1198
1196
1192
1183
1180
1173
1169
1175
1172
1169
1163
1170
1171
1168
1166
1159
1153
1153
1141
1128
1110
1110
1100
1089
1079
1068
1059
1054
1043
1030
1021
1021
1014
1009
1005
999
999
1000
996
991
994
1008
1015
1027
1040
1051
1069
1082
1090
1092
1104
1117
1123
1129
1132
1131
1132
1128
1118
1101
1097
1088
1074
1064
1050
1039
1035
1026
1015
1002
1003
1001
999
1003
1004
1011
1028
1035
1042
1046
1066
1076
1085
1092
1094
1098
1102
1097
1088
1078
1076
1062
1047
1030
1008
989
970
942
910
884
865
838
812
786
758
737
712
683
649
626
603
574
545
513
478
445
405
360
306
266
218
162
108
47
-16
-73
-140
-211
-285
-347
-414
-481
-543
-606
-663
-710
-764
-814
-862
-891
-924
-954
-978
-1001
-1017
-1030
-1047
-1066
-1082
-1088
-1104
-1120
-1137
-1158
-1174
-1192
-1218
-1248
-1271
-1288
-1314
-1337
-1362
-1387
-1404
-1423
-1445
-1468
-1478
-1483
-1489
-1490
-1489
-1486
-1475
-1468
-1462
-1462
-1442
-1428
-1418
-1405
-1397
-1389
-1377
-1372
-1372
-1376
-1370
-1371
-1374
-1375
-1381
-1384
-1382
-1389
-1398
-1406
-1401
-1401
-1401
-1397
-1393
-1383
-1369
-1359
-1349
-1334
-1306
-1286
-1263
-1239
-1217
-1189
-1161
-1141
-1125
-1103
-1077
-1059
-1042
-1028
-1018
-1002
-992
-986
-983
-971
-956
-947
-935
-924
-912
-892
-877
-862
-852
-820
-793
-767
-737
-709
-679
-645
-617
-593
-574
-541
-518
-498
-478
-464
-449
-431
-427
-427
-429
-422
-422
-423
-424
-427
-426
-422
-426
-431
-431
-420
-416
-409
-399
-389
-372
-354
-341
-331
-312
-288
-273
-258
-245
-236
-222
-214
-212
-215
-212
-209
-214
-218
-225
-233
-234
-243
-253
-267
-262
-261
-263
-260
-258
-254
-244
-239
-232
-227
-204
-188
-174
-155
-141
-126
-106
-97
-91
-85
-70
-63
-56
-50
-47
-41
-35
-37
-43
-45
-38
-39
-38
-36
-34
-26
-18
-16
-17
-9
4
11
21
33
44
63
80
94
105
124
144
159
176
192
207
230
243
254
257
277
288
294
301
303
305
311
310
307
300
311
313
313
317
316
319
326
325
322
322
331
333
334
336
333
332
332
323
310
302
303
296
289
282
272
265
256
241
220
210
202
186
172
157
141
131
117
100
80
70
63
52
45
36
31
35
30
21
6
4
-5
-18
-32
-49
-66
-79
-101
-125
-154
-166
-191
-219
-247
-279
-309
-336
-368
-401
-431
-450
-473
-495
-513
-531
-540
-545
-555
-564
-566
-557
-555
-551
-546
-543
-536
-531
-534
-542
-541
-538
-543
-547
-554
-563
-567
-576
-590
-609
-618
-627
-641
-649
-659
-667
-664
-670
-676
-685
-675
-670
-665
-656
-648
-637
-621
-613
-607
-606
-587
-580
-577
-571
-572
-570
-568
-573
-582
-588
-587
-594
-602
-610
-620
-624
-627
-635
-645
-648
-641
-639
-634
-628
-622
-608
-595
-586
-582
-565
-546
-533
-518
-505
-493
-477
-467
-461
-463
-455
-451
-453
-454
-459
-466
-466
-476
-489
-506
-508
-513
-519
-520
-523
-522
-511
-507
-502
-499
-475
-460
-445
-428
-414
-397
-377
-365
-357
-348
-332
-325
-321
-319
-322
-322
-322
-330
-342
-348
-347
-354
-358
-361
-366
-362
-360
-360
-361
-348
-331
-318
-302
-286
-270
-249
-231
-217
-208
-186
-168
-156
-142
-133
-126
-113
-110
-111
-117
-111
-110
-111
-109
-109
-107
-98
-98
-98
-100
-83
-73
-61
-45
-29
-7
19
40
61
83
114
136
158
179
197
219
239
251
258
269
285
291
297
300
301
308
311
310
305
312
323
330
340
350
361
379
396
412
425
455
482
506
535
560
585
616
637
656
671
696
716
730
745
753
761
773
773
770
763
772
772
772
773
773
776
781
778
774
771
779
779
782
786
788
795
802
802
798
798
803
798
791
782
769
762
748
727
700
681
662
635
609
580
549
523
493
461
425
406
382
354
330
303
277
257
232
206
180
168
153
136
124
107
93
86
68
49
28
23
10
-4
-17
-32
-44
-56
-74
-95
-112
-118
-131
-142
-152
-162
-167
-171
-181
-193
-196
-192
-193
-191
-189
-187
-178
-173
-173
-177
-173
-167
-168
-168
-170
-172
-169
-172
-178
-191
-187
-191
-199
-204
-213
-219
-219
-223
-228
-233
-223
-219
-216
-208
-203
-194
-176
-168
-161
-154
-133
-121
-109
-98
-89
-79
-68
-64
-63
-61
-49
-48
-47
-48
-53
-55
-60
-72
-88
-97
-101
-113
-121
-129
-138
-141
-146
-154
-164
-164
-160
-159
-155
-152
-148
-137
-134
-133
-140
-129
-126
-128
-127
-130
-134
-135
-143
-154
-170
-172
-183
-196
-207
-222
-233
-238
-251
-264
-276
-272
-274
-273
-270
-268
-261
-250
-244
-241
-235
-217
-209
-200
-193
-189
-180
-175
-177
-186
-187
-185
-191
-197
-205
-214
-218
-226
-238
-253
-258
-260
-266
-268
-270
-270
-261
-258
-255
-257
-239
-227
-217
-205
-195
-185
-170
-163
-158
-159
-145
-142
-142
-139
-141
-141
-137
-142
-149
-156
-152
-155
-157
-158
-160
-157
-151
-151
-151
-144
-126
-115
-101
-86
-73
-54
-38
-28
-22
-7
10
18
27
32
34
39
37
29
16
10
5
-5
-13
-23
-33
-34
-43
-53
-67
-62
-61
-60
-54
-47
-37
-22
-11
-2
4
28
41
51
64
73
83
95
99
99
97
103
100
95
90
81
77
76
68
58
54
60
59
61
65
69
81
93
103
109
128
150
167
185
202
215
231
242
247
245
250
253
248
244
234
222
216
199
181
157
149
137
122
111
99
90
87
78
69
58
67
67
69
75
80
88
99
104
106
108
119
121
123
124
121
122
122
114
101
92
90
79
69
58
44
37
28
15
-2
-7
-10
-18
-22
-25
-27
-20
-15
-11
-8
5
19
27
37
43
47
59
60
58
52
59
61
58
56
50
46
45
35
24
9
14
9
4
3
0
3
8
9
10
14
29
39
51
65
76
92
107
113
114
119
129
130
130
127
120
118
112
98
78
69
59
43
29
14
0
-8
-17
-27
-38
-36
-33
-33
-27
-24
-20
-6
1
6
7
20
28
31
36
35
34
38
31
22
8
11
3
-5
-11
-20
-27
-31
-40
-49
-55
-48
-46
-41
-33
-27
-16
-3
4
9
20
40
52
65
76
84
99
111
120
127
150
180
212
251
294
338
387
432
470
498
531
552
557
553
534
506
477
433
382
324
276
219
154
86
9
-70
-143
-230
-321
-421
-510
-616
-733
-856
-990
-1131
-1278
-1439
-1606
-1776
-1941
-2114
-2286
-2454
-2622
-2781
-2937
-3098
-3258
-3406
-3539
-3668
-3782
-3882
-3971
-4039
-4098
-4150
-4197
-4226
-4252
-4282
-4309
-4334
-4356
-4366
-4368
-4359
-4340
-4289
-4231
-4168
-4098
-4032
-3972
-3914
-3874
-3848
-3836
-3822
-3822
-3830
-3843
-3868
-3895
-3917
-3950
-3983
-4019
-4037
-4061
-4080
-4090
-4093
-4082
-4059
-4032
-3996
-3944
-3867
-3782
-3679
-3558
-3422
-3265
-3093
-2918
-2738
-2546
-2345
-2153
-1961
-1774
-1592
-1410
-1240
-1084
-941
-794
-651
-520
-391
-268
-151
-35
70
165
247
339
419
489
557
618
675
735
785
830
870
921
966
1008
1053
1093
1136
1186
1227
1267
1307
1361
1408
1453
1500
1544
1592
1643
1688
1730
1774
1826
1868
1909
1947
1979
2012
2042
2062
2075
2095
2119
2134
2150
2163
2173
2188
2198
2203
2204
2215
2229
2237
2248
2258
2269
2287
2300
2310
2314
2336
2352
2364
2379
2391
2403
2419
2427
2431
2429
2439
2441
2439
2439
2433
2429
2428
2415
2399
2380
2372
2355
2337
2320
2299
2283
2269
2248
2224
2205
2195
2177
2159
2142
2123
2111
2098
2080
2058
2045
2035
2017
2001
1982
1961
1947
1928
1906
1880
1863
1849
1830
1812
1791
1770
1755
1731
1704
1672
1659
1640
1618
1601
1583
1568
1559
1544
1531
1516
1519
1515
1512
1513
1510
1511
1516
1511
1502
1492
1492
1483
1474
1465
1451
1441
1432
1413
1391
1372
1362
1342
1324
1307
1289
1278
1267
1252
1235
1228
1228
1222
1219
1217
1216
1223
1228
1230
1229
1236
1243
1245
1248
1246
1243
1246
1239
1228
1209
1208
1198
1185
1174
1159
1144
1134
1116
1097
1073
1069
1058
1045
1038
1029
1026
1030
1026
1023
1022
1034
1040
1047
1056
1061
1069
1078
1078
1074
1073
1080
1077
1074
1068
1059
1054
1045
1030
1008
996
987
971
959
945
932
926
918
908
897
896
898
896
899
901
904
917
920
921
916
928
931
929
928
921
913
908
894
876
852
846
828
807
788
764
743
726
701
675
653
643
629
618
612
606
607
610
607
603
605
616
618
623
628
629
634
635
628
614
607
601
587
573
555
536
522
505
484
460
446
433
418
408
397
389
392
388
385
379
392
400
407
417
424
432
445
449
451
448
463
467
468
472
470
470
473
468
462
458
464
464
466
469
470
476
484
485
484
490
506
516
530
545
559
579
598
611
619
637
656
666
676
684
689
697
700
697
688
689
687
680
675
666
658
660
653
646
635
640
641
641
644
647
654
669
677
686
693
721
738
753
769
781
794
809
817
821
825
836
838
838
837
833
832
831
822
810
804
806
800
796
791
783
782
777
767
753
753
755
751
750
748
744
744
739
728
709
699
684
662
640
613
585
563
530
494
455
428
397
363
333
301
273
253
224
194
161
147
125
103
85
66
51
38
20
1
-17
-26
-44
-63
-83
-107
-128
-150
-179
-213
-242
-264
-295
-325
-357
-391
-418
-450
-486
-525
-552
-575
-602
-625
-648
-670
-686
-704
-724
-746
-753
-761
-770
-774
-780
-786
-786
-794
-805
-821
-826
-835
-847
-857
-873
-887
-895
-915
-937
-962
-971
-989
-1007
-1022
-1038
-1048
-1054
-1064
-1074
-1080
-1073
-1073
-1070
-1064
-1059
-1047
-1034
-1026
-1023
-1013
-997
-990
-983
-978
-976
-969
-967
-972
-981
-981
-980
-985
-989
-994
-1001
-1002
-1007
-1015
-1029
-1024
-1024
-1027
-1024
-1023
-1020
-1010
-1007
-1005
-1006
-992
-985
-980
-974
-974
-975
-971
-982
-997
-1016
-1021
-1036
-1052
-1068
-1086
-1100
-1113
-1132
-1153
-1170
-1175
-1187
-1195
-1201
-1207
-1204
-1199
-1198
-1199
-1191
-1176
-1168
-1158
-1148
-1140
-1127
-1118
-1116
-1118
-1112
-1106
-1108
-1109
-1115
-1123
-1127
-1138
-1151
-1171
-1172
-1180
-1192
-1200
-1213
-1223
-1228
-1238
-1248
-1260
-1256
-1256
-1255
-1248
-1245
-1237
-1222
-1216
-1210
-1206
-1187
-1177
-1167
-1156
-1149
-1138
-1127
-1123
-1124
-1122
-1111
-1109
-1107
-1103
-1102
-1096
-1090
-1090
-1094
-1090
-1081
-1078
-1071
-1064
-1057
-1041
-1027
-1016
-1007
-988
-965
-946
-926
-908
-890
-867
-850
-837
-831
-806
-790
-779
-766
-758
-750
-739
-735
-734
-736
-723
-717
-714
-707
-704
-697
-683
-679
-674
-667
-646
-629
-610
-589
-571
-547
-521
-504
-490
-474
-449
-434
-420
-407
-398
-385
-377
-377
-383
-383
-380
-385
-387
-392
-397
-396
-398
-403
-410
-406
-398
-394
-385
-375
-363
-341
-324
-309
-298
-268
-244
-224
-202
-183
-164
-141
-126
-113
-106
-85
-75
-69
-61
-58
-54
-45
-44
-46
-45
-32
-23
-11
3
16
34
55
71
87
109
143
170
199
228
255
285
312
330
343
363
386
399
413
421
425
430
429
421
406
397
387
371
358
342
327
322
309
296
278
280
277
275
277
279
285
298
305
310
310
326
331
332
335
332
331
332
325
314
304
303
295
286
277
265
257
252
241
228
223
229
229
232
237
242
254
266
274
279
296
319
336
355
371
385
403
419
430
441
463
491
519
551
581
610
646
670
688
696
713
717
709
693
666
633
598
550
494
428
376
308
233
154
67
-24
-117
-223
-336
-456
-577
-715
-863
-1022
-1193
-1368
-1551
-1746
-1948
-2146
-2337
-2534
-2727
-2915
-3095
-3256
-3406
-3545
-3670
-3764
-3836
-3893
-3925
-3935
-3923
-3890
-3846
-3797
-3747
-3688
-3631
-3584
-3540
-3503
-3467
-3418
-3369
-3306
-3231
-3125
-3010
-2888
-2756
-2625
-2496
-2374
-2277
-2205
-2162
-2129
-2136
-2171
-2226
-2304
-2393
-2487
-2590
-2690
-2778
-2840
-2889
-2917
-2925
-2919
-2893
-2855
-2816
-2773
-2719
-2652
-2589
-2519
-2445
-2370
-2288
-2207
-2132
-2061
-1979
-1896
-1822
-1746
-1671
-1596
-1515
-1436
-1358
-1282
-1190
-1096
-1002
-901
-801
-698
-586
-482
-380
-282
-170
-63
40
144
241
338
436
520
599
669
755
827
895
962
1022
1083
1143
1194
1240
1285
1337
1378
1418
1456
1490
1527
1563
1589
1610
1635
1665
1685
1703
1718
1729
1744
1754
1759
1758
1767
1777
1780
1784
1785
1784
1788
1790
1788
1782
1789
1794
1795
1799
1800
1801
1810
1809
1807
1801
1808
1810
1808
1808
1804
1801
1803
1792
1779
1761
1760
1748
1735
1724
1709
1698
1688
1672
1654
1638
1633
1620
1609
1600
1589
1584
1579
1567
1552
1542
1540
1529
1521
1513
1503
1500
1493
1481
1465
1461
1458
1449
1441
1432
1423
1420
1413
1404
1391
1392
1391
1385
1383
1376
1371
1372
1364
1356
1344
1345
1340
1332
1326
1315
1307
1306
1295
1285
1274
1280
1277
1273
1271
1264
1258
1251
1237
1219
1202
1196
1182
1169
1158
1144
1136
1129
1114
1096
1085
1080
1068
1058
1046
1033
1027
1017
1001
981
972
965
953
943
933
924
922
916
908
894
897
894
886
882
874
867
865
857
848
834
832
824
813
804
790
776
769
751
730
708
702
687
671
658
642
631
622
609
596
588
593
590
591
594
596
603
610
611
608
614
625
629
635
641
644
654
658
656
650
652
656
655
655
653
653
659
660
659
654
668
677
684
697
708
723
744
759
772
781
804
819
831
847
858
870
888
895
899
902
916
922
925
927
926
927
929
925
917
913
920
919
920
922
923
929
936
937
933
939
949
950
953
953
948
947
939
922
898
879
860
833
806
776
742
713
675
633
584
554
517
479
446
411
381
358
333
308
282
275
262
251
245
237
233
237
232
227
222
229
228
227
226
221
220
219
213
204
199
202
196
192
187
180
178
176
169
160
161
168
170
176
182
189
204
218
228
237
254
275
291
308
322
335
353
362
367
363
376
380
380
382
379
376
376
369
361
348
352
348
342
341
337
338
344
343
342
343
355
362
369
377
383
395
407
412
412
415
425
424
421
416
406
400
391
373
351
336
323
301
281
257
231
210
187
160
131
112
98
80
65
47
29
18
-3
-28
-61
-77
-101
-128
-155
-185
-215
-243
-280
-320
-365
-393
-431
-471
-507
-547
-582
-613
-650
-687
-721
-742
-767
-787
-802
-816
-823
-825
-831
-839
-840
-831
-830
-827
-825
-825
-820
-818
-823
-833
-836
-837
-848
-857
-869
-882
-890
-900
-915
-932
-939
-945
-953
-956
-961
-963
-954
-952
-949
-948
-927
-911
-895
-877
-861
-844
-823
-810
-799
-795
-772
-761
-752
-743
-739
-734
-729
-731
-738
-744
-741
-745
-749
-751
-755
-753
-749
-751
-754
-751
-736
-727
-714
-700
-687
-665
-646
-632
-623
-603
-581
-567
-553
-540
-530
-517
-509
-507
-511
-507
-506
-511
-513
-521
-529
-528
-536
-544
-555
-550
-547
-546
-540
-534
-524
-507
-496
-483
-473
-442
-422
-402
-382
-366
-349
-332
-323
-319
-314
-303
-300
-298
-296
-299
-298
-297
-305
-316
-321
-317
-319
-317
-314
-310
-300
-291
-285
-283
-267
-248
-234
-216
-199
-182
-161
-144
-131
-125
-109
-97
-91
-83
-82
-81
-75
-79
-86
-97
-95
-98
-104
-107
-114
-117
-112
-117
-120
-126
-110
-104
-96
-84
-74
-59
-41
-28
-17
-5
15
26
36
43
46
52
54
47
34
25
23
11
0
-12
-27
-34
-46
-62
-83
-92
-98
-109
-115
-122
-127
-126
-126
-128
-133
-123
-115
-111
-102
-98
-93
-82
-80
-81
-86
-80
-81
-86
-90
-98
-104
-104
-114
-125
-140
-137
-143
-150
-154
-161
-164
-163
-167
-171
-171
-159
-154
-146
-138
-133
-122
-112
-109
-112
-109
-101
-103
-104
-109
-117
-122
-132
-149
-173
-186
-199
-218
-237
-259
-281
-299
-320
-344
-372
-382
-394
-407
-412
-417
-417
-407
-402
-398
-394
-378
-366
-356
-345
-337
-327
-312
-309
-308
-313
-303
-304
-307
-309
-314
-315
-316
-324
-333
-340
-335
-340
-343
-344
-347
-344
-339
-339
-340
-332
-316
-306
-293
-280
-269
-250
-237
-227
-222
-207
-190
-179
-167
-158
-150
-139
-134
-133
-138
-126
-121
-119
-115
-114
-113
-105
-104
-105
-109
-98
-92
-86
-75
-66
-52
-30
-18
-8
-1
21
33
45
57
66
79
92
97
98
99
109
108
108
107
102
102
101
93
81
77
78
72
67
63
59
64
66
65
63
73
86
94
103
111
117
128
132
133
126
137
140
136
134
126
117
110
96
78
56
48
33
16
3
-13
-25
-30
-45
-59
-71
-68
-70
-70
-66
-62
-53
-42
-37
-36
-32
-19
-17
-14
-11
-12
-8
-6
-13
-25
-31
-33
-44
-53
-65
-78
-83
-92
-103
-116
-119
-119
-123
-122
-121
-119
-107
-101
-94
-93
-72
-58
-49
-37
-29
-22
-12
-9
-10
-16
-8
-9
-14
-18
-28
-35
-39
-52
-67
-80
-82
-88
-92
-94
-96
-91
-84
-81
-79
-72
-53
-40
-25
-7
8
29
48
61
68
85
104
116
129
138
145
156
162
162
158
160
164
162
161
157
155
161
159
155
147
157
163
166
174
180
189
204
213
222
225
245
253
257
263
262
262
264
256
245
234
231
221
210
200
187
178
170
155
137
123
120
109
100
94
87
88
91
89
85
91
102
105
109
111
109
112
110
101
87
78
70
55
42
24
7
-1
-19
-38
-62
-67
-78
-90
-99
-109
-116
-115
-119
-122
-127
-112
-105
-99
-88
-81
-70
-56
-49
-45
-41
-29
-26
-25
-26
-34
-39
-46
-62
-82
-99
-106
-122
-136
-150
-165
-173
-183
-197
-213
-217
-215
-216
-212
-207
-201
-187
-174
-163
-156
-139
-121
-108
-92
-80
-68
-50
-42
-39
-43
-32
-30
-32
-33
-38
-41
-40
-47
-54
-65
-56
-58
-59
-57
-57
-52
-42
-36
-30
-21
-1
14
29
46
60
77
95
105
111
121
137
142
146
148
145
146
142
132
117
114
112
106
103
98
94
95
94
92
87
95
105
113
125
136
148
169
180
189
192
208
217
222
227
227
227
231
223
211
193
192
180
165
153
137
125
118
105
90
79
77
70
63
59
56
59
65
65
65
71
86
92
98
102
102
107
107
101
89
88
88
80
71
60
47
37
23
5
-18
-27
-37
-50
-58
-69
-76
-75
-81
-88
-95
-88
-84
-81
-74
-68
-61
-47
-45
-45
-51
-40
-41
-44
-47
-53
-57
-62
-74
-90
-104
-110
-124
-138
-150
-165
-174
-181
-193
-206
-212
-210
-213
-213
-210
-207
-196
-186
-180
-177
-163
-148
-139
-131
-126
-123
-118
-118
-123
-135
-134
-139
-149
-157
-171
-185
-194
-212
-231
-253
-261
-271
-283
-291
-302
-310
-309
-320
-331
-345
-340
-343
-347
-349
-354
-356
-358
-367
-381
-393
-397
-410
-424
-437
-454
-465
-477
-495
-516
-530
-536
-548
-556
-562
-567
-561
-558
-556
-556
-542
-524
-509
-491
-473
-453
-427
-405
-386
-374
-347
-326
-312
-295
-284
-273
-259
-253
-250
-251
-238
-231
-225
-215
-210
-201
-185
-180
-175
-170
-148
-134
-119
-103
-87
-68
-47
-33
-21
-9
13
24
34
41
42
46
47
39
24
16
13
2
-7
-17
-28
-31
-38
-49
-64
-69
-71
-79
-83
-87
-90
-85
-83
-81
-84
-68
-56
-47
-34
-25
-15
2
12
20
26
45
57
68
80
87
96
111
114
115
114
126
129
131
133
132
135
139
136
131
130
142
147
156
167
177
193
210
220
226
240
258
268
281
291
298
310
317
317
312
314
316
312
310
307
304
308
306
302
291
299
301
300
304
306
311
323
330
337
341
361
373
383
396
403
412
425
427
426
424
432
431
427
423
414
408
402
389
374
363
363
357
354
351
347
348
350
346
340
345
357
363
371
378
385
398
407
412
416
432
454
476
507
541
579
626
666
702
728
767
791
803
807
797
776
749
707
657
598
551
493
430
366
294
221
152
74
-7
-89
-165
-254
-350
-455
-571
-693
-822
-966
-1120
-1275
-1425
-1589
-1754
-1920
-2086
-2245
-2403
-2565
-2729
-2881
-3025
-3169
-3302
-3424
-3535
-3627
-3710
-3785
-3851
-3898
-3937
-3979
-4017
-4056
-4093
-4120
-4149
-4167
-4177
-4154
-4121
-4078
-4023
-3967
-3912
-3860
-3826
-3806
-3804
-3798
-3815
-3843
-3874
-3918
-3967
-4015
-4072
-4129
-4184
-4230
-4278
-4321
-4356
-4382
-4390
-4382
-4368
-4345
-4304
-4240
-4168
-4079
-3971
-3847
-3700
-3539
-3370
-3197
-3007
-2811
-2621
-2430
-2243
-2060
-1875
-1700
-1535
-1380
-1224
-1071
-930
-792
-663
-540
-414
-304
-202
-111
-7
87
174
260
338
413
490
556
616
669
738
795
849
904
954
1006
1060
1106
1150
1193
1245
1290
1335
1380
1423
1469
1515
1553
1586
1624
1667
1700
1731
1761
1786
1814
1837
1852
1859
1874
1888
1893
1897
1897
1893
1893
1890
1882
1870
1869
1868
1863
1861
1857
1854
1860
1857
1854
1847
1857
1863
1870
1880
1889
1900
1917
1926
1936
1941
1965
1979
1990
2004
2013
2023
2033
2035
2033
2028
2031
2023
2015
2006
1994
1985
1975
1957
1935
1917
1907
1888
1870
1852
1833
1821
1807
1789
1767
1758
1751
1737
1727
1716
1704
1697
1687
1674
1656
1649
1640
1625
1613
1596
1579
1569
1550
1530
1506
1496
1480
1462
1447
1428
1411
1401
1381
1361
1338
1336
1325
1315
1309
1300
1297
1295
1288
1280
1273
1276
1271
1267
1264
1258
1258
1257
1248
1235
1227
1226
1216
1208
1199
1187
1183
1174
1160
1141
1135
1130
1121
1114
1107
1102
1103
1103
1100
1095
1103
1109
1111
1116
1117
1119
1128
1126
1122
1115
1119
1118
1113
1108
1099
1091
1088
1074
1058
1039
1038
1027
1015
1006
994
987
982
973
964
959
968
971
977
986
994
1008
1022
1030
1035
1047
1066
1077
1089
1099
1106
1118
1123
1122
1113
1114
1115
1109
1103
1096
1088
1085
1077
1066
1051
1052
1049
1043
1043
1041
1043
1054
1059
1063
1066
1080
1089
1095
1103
1106
1110
1121
1120
1116
1108
1115
1111
1105
1099
1089
1081
1074
1061
1046
1033
1031
1023
1017
1013
1008
1010
1014
1014
1013
1022
1039
1052
1068
1084
1099
1121
1138
1149
1155
1170
1186
1196
1205
1211
1214
1220
1219
1213
1200
1202
1199
1193
1192
1189
1189
1198
1201
1203
1204
1221
1234
1248
1266
1281
1300
1326
1341
1353
1362
1384
1394
1402
1407
1409
1412
1415
1410
1400
1390
1388
1373
1357
1338
1315
1295
1274
1247
1217
1196
1182
1162
1146
1132
1120
1117
1112
1105
1095
1098
1103
1104
1107
1107
1107
1111
1108
1100
1084
1085
1078
1066
1056
1042
1027
1016
998
977
952
941
923
904
889
871
858
852
838
825
812
814
811
810
811
811
816
822
821
818
817
825
822
818
813
804
799
790
773
751
735
723
702
684
663
642
627
610
590
568
558
553
546
543
540
539
545
544
543
535
547
551
551
552
548
544
541
530
514
491
481
461
437
414
385
357
333
296
255
213
181
140
98
57
12
-27
-63
-106
-151
-192
-222
-260
-296
-332
-370
-402
-437
-478
-524
-563
-598
-642
-684
-729
-777
-818
-863
-912
-964
-1008
-1048
-1092
-1133
-1176
-1217
-1248
-1285
-1322
-1361
-1378
-1399
-1419
-1434
-1450
-1462
-1468
-1480
-1492
-1507
-1504
-1511
-1520
-1525
-1534
-1541
-1545
-1560
-1578
-1596
-1605
-1620
-1635
-1649
-1665
-1676
-1685
-1700
-1716
-1727
-1728
-1735
-1740
-1741
-1741
-1733
-1724
-1719
-1716
-1703
-1686
-1675
-1661
-1649
-1639
-1623
-1612
-1605
-1603
-1594
-1585
-1582
-1578
-1578
-1577
-1569
-1570
-1572
-1580
-1570
-1566
-1563
-1556
-1551
-1542
-1527
-1517
-1507
-1498
-1468
-1446
-1424
-1397
-1374
-1348
-1319
-1299
-1282
-1264
-1238
-1219
-1201
-1184
-1171
-1157
-1144
-1140
-1142
-1140
-1129
-1127
-1123
-1119
-1115
-1105
-1094
-1087
-1083
-1068
-1048
-1033
-1013
-992
-971
-943
-917
-895
-876
-850
-825
-805
-785
-769
-754
-732
-722
-716
-716
-702
-696
-694
-691
-692
-691
-685
-687
-689
-695
-681
-677
-673
-664
-658
-646
-629
-616
-603
-587
-559
-537
-516
-493
-476
-456
-436
-427
-424
-417
-404
-401
-399
-398
-401
-400
-402
-411
-425
-427
-427
-432
-434
-436
-438
-434
-432
-433
-437
-431
-424
-420
-412
-406
-399
-383
-376
-373
-375
-364
-361
-361
-362
-367
-371
-372
-382
-396
-415
-415
-427
-441
-452
-467
-479
-487
-500
-514
-522
-520
-522
-523
-520
-519
-512
-502
-498
-495
-485
-466
-454
-441
-429
-422
-410
-403
-404
-411
-408
-404
-408
-411
-415
-421
-423
-428
-437
-450
-451
-454
-461
-463
-467
-468
-461
-461
-461
-464
-453
-445
-439
-429
-423
-414
-401
-399
-400
-406
-395
-396
-400
-404
-413
-420
-426
-437
-451
-462
-464
-474
-483
-491
-502
-506
-508
-516
-525
-525
-516
-512
-506
-498
-491
-476
-463
-453
-447
-428
-408
-393
-376
-360
-346
-327
-313
-303
-300
-285
-274
-269
-262
-261
-261
-255
-258
-263
-272
-270
-272
-277
-279
-283
-283
-276
-277
-279
-284
-270
-266
-263
-258
-258
-255
-252
-257
-265
-272
-270
-277
-285
-292
-301
-303
-301
-302
-301
-288
-260
-233
-199
-164
-130
-90
-54
-26
-7
17
35
37
31
16
-6
-31
-67
-114
-174
-226
-291
-369
-452
-547
-651
-757
-877
-1006
-1146
-1284
-1437
-1602
-1774
-1958
-2147
-2335
-2539
-2746
-2955
-3146
-3342
-3531
-3708
-3874
-4024
-4159
-4286
-4400
-4494
-4558
-4609
-4636
-4640
-4628
-4596
-4556
-4516
-4479
-4437
-4394
-4361
-4326
-4287
-4238
-4164
-4073
-3966
-3844
-3697
-3538
-3380
-3220
-3066
-2921
-2787
-2679
-2600
-2555
-2522
-2521
-2548
-2593
-2660
-2739
-2815
-2893
-2960
-3011
-3026
-3023
-2999
-2954
-2896
-2822
-2733
-2648
-2558
-2463
-2348
-2237
-2122
-2002
-1883
-1758
-1629
-1507
-1387
-1265
-1133
-1008
-881
-753
-626
-494
-364
-242
-126
-4
121
237
353
466
576
691
801
903
1000
1102
1204
1297
1389
1474
1554
1637
1709
1776
1835
1909
1975
2035
2095
2151
2205
2264
2315
2363
2405
2459
2502
2538
2571
2594
2614
2635
2640
2640
2635
2639
2632
2621
2608
2591
2576
2560
2536
2509
2485
2472
2452
2434
2419
2404
2397
2391
2381
2370
2371
2378
2380
2386
2391
2394
2404
2407
2403
2393
2389
2383
2369
2353
2333
2311
2294
2268
2238
2200
2181
2154
2122
2094
2064
2036
2015
1989
1964
1938
1931
1918
1905
1899
1890
1885
1887
1881
1873
1865
1867
1862
1854
1844
1828
1814
1800
1777
1749
1724
1707
1680
1654
1628
1601
1579
1556
1527
1496
1477
1463
1444
1430
1417
1405
1401
1395
1386
1374
1372
1373
1371
1371
1369
1369
1376
1374
1369
1356
1360
1357
1349
1342
1331
1320
1314
1299
1283
1262
1257
1244
1229
1219
1205
1196
1193
1185
1177
1172
1180
1183
1189
1197
1204
1216
1228
1233
1234
1239
1252
1255
1258
1259
1255
1254
1248
1233
1211
1196
1182
1160
1136
1109
1078
1050
1016
976
933
897
863
824
789
752
717
691
657
623
584
564
539
512
487
459
432
410
380
349
313
295
267
237
211
182
158
139
115
90
69
60
46
35
27
19
18
22
21
20
26
42
52
65
79
90
108
123
132
137
152
169
179
191
200
206
216
221
222
218
222
226
227
230
231
233
244
247
248
245
259
269
279
293
307
324
347
362
376
385
412
428
441
458
470
485
501
510
515
520
533
538
542
545
546
551
557
556
552
556
569
574
582
591
600
617
633
647
657
681
708
729
752
773
792
814
832
846
854
871
887
896
905
909
912
920
917
911
901
905
906
905
908
909
914
926
930
935
938
962
977
992
1010
1026
1046
1067
1081
1091
1100
1117
1125
1132
1138
1140
1145
1149
1144
1135
1130
1132
1125
1117
1108
1096
1090
1081
1068
1050
1045
1042
1034
1030
1025
1021
1023
1022
1018
1010
1012
1010
1002
993
979
963
953
933
910
883
868
849
827
807
783
761
745
718
690
658
646
625
604
587
567
551
538
518
498
481
475
463
453
445
435
430
423
407
387
371
360
339
318
294
267
244
216
182
142
113
84
48
14
-21
-56
-85
-115
-146
-181
-200
-222
-245
-263
-283
-300
-309
-325
-342
-362
-372
-387
-405
-423
-447
-471
-489
-519
-550
-585
-604
-632
-661
-689
-718
-744
-768
-799
-832
-860
-877
-901
-921
-940
-958
-970
-978
-992
-1008
-1016
-1016
-1023
-1026
-1029
-1034
-1032
-1034
-1042
-1054
-1057
-1059
-1067
-1074
-1082
-1092
-1096
-1104
-1116
-1134
-1136
-1144
-1154
-1160
-1169
-1174
-1171
-1172
-1173
-1173
-1158
-1147
-1135
-1118
-1104
-1084
-1057
-1039
-1022
-1007
-976
-954
-934
-913
-897
-879
-861
-853
-849
-844
-830
-826
-823
-822
-826
-827
-831
-842
-859
-869
-874
-888
-901
-914
-929
-935
-945
-960
-979
-990
-999
-1014
-1028
-1043
-1057
-1066
-1080
-1098
-1123
-1131
-1145
-1163
-1177
-1195
-1211
-1221
-1236
-1251
-1269
-1272
-1279
-1287
-1289
-1294
-1293
-1283
-1281
-1277
-1271
-1248
-1231
-1213
-1192
-1172
-1148
-1122
-1103
-1086
-1067
-1038
-1019
-999
-980
-964
-945
-928
-920
-915
-904
-888
-879
-867
-856
-846
-829
-815
-804
-794
-774
-749
-727
-700
-672
-641
-604
-572
-543
-521
-481
-450
-424
-396
-371
-348
-322
-304
-290
-281
-260
-248
-238
-225
-215
-203
-185
-177
-169
-161
-140
-125
-110
-93
-77
-54
-28
-7
12
37
73
100
128
154
177
203
227
243
253
272
293
305
317
325
329
336
337
333
323
319
317
309
301
291
280
278
267
256
240
246
249
250
257
263
272
287
297
305
308
328
339
347
360
367
376
388
389
387
383
387
383
379
374
367
364
363
355
345
339
343
340
339
340
341
348
356
359
359
369
382
387
392
394
393
396
393
384
370
362
354
340
327
312
296
288
270
250
225
219
208
196
188
179
174
175
171
168
163
177
183
189
199
205
212
222
222
218
212
215
210
205
198
188
181
175
161
143
129
122
106
91
77
61
53
45
33
18
16
20
18
20
21
23
31
37
39
37
43
49
49
50
45
40
40
30
17
-3
-6
-15
-28
-38
-51
-63
-70
-84
-98
-116
-113
-119
-125
-125
-128
-126
-118
-117
-117
-115
-103
-97
-90
-82
-78
-71
-63
-64
-70
-73
-68
-74
-79
-85
-94
-98
-105
-118
-136
-144
-149
-160
-168
-176
-184
-185
-187
-190
-195
-188
-179
-173
-162
-152
-141
-121
-111
-104
-102
-86
-77
-73
-69
-72
-74
-74
-85
-97
-115
-113
-122
-133
-141
-152
-160
-166
-178
-191
-201
-201
-208
-214
-220
-229
-233
-237
-248
-263
-273
-277
-290
-303
-316
-334
-347
-365
-389
-419
-439
-458
-483
-507
-530
-553
-571
-590
-611
-635
-647
-659
-674
-685
-698
-709
-711
-721
-732
-747
-748
-755
-764
-770
-780
-788
-789
-799
-811
-826
-822
-828
-836
-841
-849
-853
-853
-858
-862
-862
-851
-845
-836
-825
-814
-797
-778
-765
-753
-733
-702
-677
-648
-617
-588
-552
-519
-493
-471
-439
-406
-382
-357
-334
-315
-292
-276
-265
-262
-248
-239
-234
-227
-224
-220
-209
-205
-201
-200
-184
-172
-161
-145
-131
-112
-84
-65
-46
-30
4
28
50
73
92
113
135
150
161
172
190
198
204
208
208
211
214
209
201
200
207
207
210
213
215
225
233
238
241
257
277
293
312
331
350
372
389
400
404
422
432
436
442
442
440
442
435
424
409
405
396
385
376
365
356
355
345
335
324
332
331
332
337
341
350
362
370
375
382
399
405
410
413
411
413
412
404
392
386
386
376
368
357
345
340
331
320
306
304
306
305
307
309
313
323
329
334
334
352
365
374
386
394
402
414
416
415
408
412
409
401
396
385
375
370
352
333
311
303
288
273
260
246
237
231
220
209
201
205
202
201
202
203
210
217
218
215
219
228
227
227
224
218
216
209
196
178
168
159
145
131
116
101
92
78
62
41
39
33
24
21
16
14
18
17
16
12
24
28
29
32
28
26
27
16
1
-16
-22
-36
-51
-64
-80
-92
-103
-121
-141
-158
-164
-178
-190
-199
-210
-213
-215
-222
-232
-232
-227
-228
-227
-227
-228
-222
-221
-224
-231
-229
-227
-230
-233
-238
-245
-245
-253
-264
-280
-278
-283
-292
-299
-309
-317
-321
-329
-338
-350
-345
-345
-346
-343
-341
-336
-324
-321
-319
-317
-304
-298
-292
-287
-287
-284
-281
-286
-296
-305
-306
-316
-326
-337
-351
-361
-372
-388
-408
-418
-422
-432
-438
-442
-445
-439
-433
-430
-429
-419
-405
-397
-387
-380
-373
-359
-355
-353
-359
-347
-343
-344
-344
-348
-353
-354
-363
-373
-388
-387
-394
-401
-404
-410
-412
-408
-411
-413
-412
-398
-388
-374
-356
-339
-316
-292
-275
-261
-244
-217
-200
-182
-165
-152
-135
-121
-115
-116
-107
-96
-93
-88
-86
-85
-78
-75
-76
-80
-75
-67
-61
-51
-40
-26
-2
14
32
45
75
99
118
139
156
173
192
201
207
208
224
229
229
232
230
230
235
233
229
229
239
244
250
258
265
279
295
305
315
331
358
378
400
423
447
479
513
546
581
633
695
755
820
885
947
1011
1066
1109
1139
1166
1181
1179
1170
1148
1119
1093
1053
1009
955
912
859
799
738
673
611
552
483
408
321
243
146
37
-79
-207
-340
-477
-628
-788
-952
-1108
-1272
-1436
-1599
-1766
-1929
-2092
-2260
-2427
-2581
-2717
-2850
-2971
-3084
-3188
-3277
-3360
-3445
-3535
-3614
-3689
-3770
-3845
-3913
-3970
-4008
-4035
-4051
-4057
-4044
-4029
-4023
-4022
-4037
-4064
-4098
-4156
-4229
-4317
-4398
-4491
-4591
-4691
-4791
-4886
-4972
-5064
-5151
-5234
-5286
-5337
-5374
-5392
-5397
-5382
-5349
-5304
-5241
-5156
-5038
-4906
-4750
-4571
-4377
-4163
-3938
-3713
-3486
-3251
-3008
-2774
-2541
-2312
-2092
-1872
-1664
-1469
-1286
-1099
-917
-749
-585
-429
-282
-138
-5
117
228
343
450
546
640
724
803
885
953
1014
1067
1130
1187
1239
1293
1343
1395
1452
1499
1544
1585
1645
1694
1743
1793
1839
1887
1935
1975
2012
2047
2090
2122
2153
2182
2207
2233
2258
2273
2282
2293
2309
2315
2319
2320
2315
2315
2309
2297
2279
2271
2264
2250
2237
2223
2206
2193
2176
2156
2131
2122
2109
2092
2080
2063
2048
2040
2022
2003
1979
1968
1950
1930
1912
1890
1870
1856
1829
1798
1764
1746
1719
1692
1669
1643
1623
1605
1583
1560
1539
1530
1515
1502
1492
1482
1479
1478
1472
1463
1461
1465
1461
1458
1454
1448
1449
1445
1435
1420
1417
1414
1405
1397
1388
1379
1375
1368
1359
1345
1348
1348
1343
1343
1339
1336
1338
1332
1327
1319
1324
1326
1326
1329
1328
1330
1339
1335
1330
1322
1330
1330
1329
1330
1327
1327
1326
1318
1307
1297
1298
1291
1285
1281
1274
1273
1272
1264
1252
1249
1252
1249
1249
1250
1251
1261
1269
1273
1274
1286
1300
1308
1318
1326
1335
1348
1356
1361
1359
1372
1379
1379
1382
1379
1377
1378
1373
1366
1355
1357
1353
1347
1343
1336
1332
1336
1330
1326
1322
1335
1342
1352
1365
1376
1392
1410
1421
1430
1442
1465
1479
1493
1506
1515
1528
1539
1542
1539
1543
1551
1551
1552
1551
1549
1554
1555
1552
1545
1548
1555
1557
1561
1564
1568
1579
1585
1589
1586
1601
1609
1612
1618
1618
1619
1623
1620
1613
1602
1604
1597
1587
1579
1565
1552
1545
1529
1511
1494
1491
1482
1474
1468
1461
1460
1462
1460
1456
1459
1473
1481
1492
1502
1509
1520
1528
1529
1525
1528
1534
1531
1529
1524
1517
1515
1506
1492
1472
1459
1447
1430
1416
1402
1390
1385
1376
1366
1352
1359
1362
1364
1371
1377
1385
1398
1405
1410
1409
1423
1427
1427
1428
1424
1421
1421
1411
1399
1388
1386
1377
1367
1358
1346
1338
1332
1319
1305
1295
1296
1290
1287
1287
1285
1290
1295
1295
1291
1298
1310
1315
1323
1327
1328
1333
1332
1323
1308
1298
1287
1268
1249
1225
1199
1179
1148
1113
1070
1045
1012
975
942
906
873
847
817
787
755
743
722
702
687
668
651
639
617
593
567
550
525
497
469
435
406
376
339
299
263
236
200
165
131
95
67
38
5
-31
-54
-70
-91
-108
-124
-140
-150
-162
-178
-197
-208
-217
-232
-246
-263
-281
-293
-317
-346
-382
-403
-432
-464
-494
-527
-559
-586
-621
-657
-697
-718
-747
-777
-800
-825
-844
-858
-878
-898
-916
-924
-940
-955
-970
-988
-1002
-1014
-1035
-1059
-1079
-1093
-1116
-1141
-1168
-1199
-1225
-1253
-1288
-1326
-1353
-1377
-1407
-1434
-1461
-1488
-1507
-1526
-1547
-1567
-1575
-1579
-1585
-1586
-1589
-1590
-1582
-1583
-1585
-1591
-1583
-1580
-1580
-1578
-1580
-1581
-1578
-1585
-1596
-1612
-1610
-1619
-1629
-1635
-1643
-1647
-1647
-1653
-1660
-1664
-1656
-1652
-1644
-1632
-1620
-1602
-1580
-1565
-1552
-1534
-1508
-1491
-1474
-1459
-1446
-1428
-1414
-1407
-1406
-1395
-1384
-1382
-1378
-1377
-1377
-1374
-1373
-1375
-1381
-1374
-1367
-1362
-1353
-1345
-1333
-1311
-1295
-1278
-1262
-1231
-1203
-1176
-1146
-1118
-1090
-1056
-1033
-1011
-995
-961
-938
-918
-896
-879
-859
-840
-827
-818
-808
-787
-774
-759
-741
-724
-701
-676
-658
-641
-618
-586
-562
-535
-508
-482
-451
-423
-402
-388
-364
-341
-328
-316
-309
-305
-301
-302
-308
-322
-324
-331
-343
-352
-364
-374
-374
-381
-388
-395
-387
-381
-375
-364
-354
-341
-319
-306
-293
-281
-251
-232
-214
-195
-182
-167
-153
-146
-144
-142
-131
-130
-130
-132
-137
-138
-139
-148
-159
-163
-160
-163
-164
-163
-163
-155
-149
-147
-148
-136
-121
-112
-100
-89
-80
-67
-59
-57
-62
-55
-55
-62
-69
-81
-96
-106
-125
-147
-174
-190
-212
-238
-262
-290
-318
-338
-369
-402
-436
-453
-480
-506
-532
-560
-586
-611
-643
-679
-713
-739
-774
-808
-842
-879
-910
-942
-980
-1022
-1056
-1083
-1115
-1144
-1171
-1199
-1217
-1237
-1260
-1285
-1298
-1306
-1318
-1325
-1331
-1334
-1329
-1326
-1324
-1326
-1310
-1298
-1291
-1279
-1271
-1262
-1246
-1238
-1233
-1232
-1219
-1212
-1209
-1205
-1205
-1204
-1196
-1199
-1203
-1210
-1201
-1200
-1200
-1199
-1199
-1194
-1186
-1184
-1181
-1175
-1155
-1143
-1127
-1110
-1093
-1071
-1049
-1033
-1020
-1000
-974
-955
-935
-917
-902
-881
-868
-861
-859
-849
-837
-830
-822
-817
-811
-800
-793
-789
-790
-773
-760
-749
-732
-716
-696
-669
-647
-626
-608
-576
-552
-531
-508
-489
-469
-444
-432
-422
-416
-399
-391
-385
-379
-376
-370
-364
-364
-367
-365
-353
-349
-343
-336
-330
-318
-305
-296
-289
-272
-250
-233
-214
-196
-179
-157
-140
-129
-121
-106
-89
-79
-68
-61
-56
-47
-46
-49
-59
-51
-51
-54
-53
-54
-54
-49
-48
-49
-51
-37
-29
-20
-5
7
23
46
60
72
83
105
120
133
146
156
168
181
184
184
185
194
192
191
189
184
184
183
177
168
168
175
175
179
182
186
198
209
218
225
243
265
282
301
316
330
350
361
369
369
386
397
402
409
411
414
420
419
416
409
419
421
422
428
431
438
450
455
457
460
472
476
479
484
486
493
501
500
497
496
504
502
500
498
493
493
492
484
471
468
468
462
458
453
449
452
454
454
454
464
478
489
505
522
541
570
591
612
628
662
688
710
733
751
768
787
797
803
802
816
818
817
818
813
811
812
804
794
786
788
784
782
783
782
785
791
791
789
791
803
806
810
813
813
817
817
809
795
787
780
763
746
726
702
681
656
624
588
557
526
489
454
415
377
349
312
276
237
216
193
169
149
127
108
95
75
55
30
24
9
-9
-25
-45
-62
-78
-101
-127
-152
-166
-186
-205
-223
-243
-258
-270
-289
-309
-322
-324
-332
-336
-336
-336
-328
-320
-316
-315
-303
-288
-280
-271
-264
-259
-250
-246
-247
-253
-251
-251
-258
-263
-272
-281
-281
-291
-303
-319
-319
-324
-332
-337
-342
-344
-340
-341
-341
-343
-323
-312
-300
-285
-273
-258
-242
-234
-228
-221
-205
-197
-191
-185
-184
-179
-176
-181
-191
-195
-191
-195
-198
-199
-203
-200
-199
-202
-208
-202
-193
-189
-179
-169
-158
-142
-127
-116
-108
-91
-75
-65
-52
-44
-36
-20
-15
-13
-18
-12
-13
-18
-23
-32
-40
-41
-53
-64
-80
-75
-81
-86
-89
-93
-92
-87
-86
-83
-76
-57
-45
-31
-16
-5
10
25
31
33
39
52
56
59
60
58
59
55
44
27
22
19
11
6
1
-5
-6
-8
-13
-21
-13
-6
-2
9
17
28
48
59
66
70
84
91
94
97
96
95
99
91
79
62
61
49
36
24
11
2
-5
-16
-28
-36
-32
-35
-36
-35
-35
-27
-17
-12
-9
2
21
32
43
51
56
65
69
67
59
61
63
59
56
50
43
39
32
20
4
4
1
-5
-5
-7
-6
1
3
4
3
15
25
33
46
55
66
83
88
90
88
101
104
105
108
107
109
111
106
98
91
93
86
80
75
67
65
63
56
47
46
53
54
57
61
65
76
84
88
88
97
105
106
105
99
92
87
76
59
35
27
13
-6
-21
-39
-57
-70
-90
-110
-133
-141
-153
-165
-171
-181
-185
-182
-188
-195
-203
-197
-198
-200
-201
-207
-211
-215
-227
-244
-259
-265
-282
-299
-318
-340
-359
-378
-405
-436
-460
-479
-506
-530
-555
-579
-594
-610
-628
-647
-653
-653
-654
-652
-648
-641
-627
-617
-609
-605
-583
-567
-555
-540
-529
-518
-502
-493
-487
-483
-466
-455
-445
-432
-423
-410
-391
-382
-374
-364
-340
-321
-301
-277
-256
-230
-202
-180
-161
-139
-108
-86
-65
-44
-27
-7
10
18
20
28
37
36
36
32
27
27
23
15
4
3
5
2
3
4
6
18
26
33
36
60
79
94
115
132
151
173
190
203
212
234
247
255
263
265
267
272
265
255
245
246
241
236
232
225
222
220
214
205
202
211
215
222
232
242
259
276
286
292
306
324
333
344
352
358
368
373
372
365
364
363
356
351
343
336
337
331
323
309
315
316
314
316
316
319
328
332
336
338
357
368
376
387
392
399
409
409
406
403
408
406
403
399
391
386
382
370
355
344
343
334
328
323
318
319
319
314
307
312
322
327
335
343
352
366
377
383
383
389
396
396
397
395
393
397
391
381
365
365
359
348
340
329
321
318
310
301
288
295
293
290
292
292
296
305
308
311
316
330
337
343
349
352
358
365
365
362
362
369
367
362
356
345
337
326
307
283
270
261
245
232
219
205
197
188
176
162
157
154
147
143
137
130
131
122
110
93
90
80
67
53
36
19
6
-17
-43
-74
-87
-111
-137
-159
-185
-208
-226
-249
-273
-294
-303
-318
-330
-340
-352
-357
-360
-370
-383
-392
-395
-406
-418
-431
-447
-458
-471
-491
-516
-530
-543
-562
-578
-595
-613
-627
-641
-658
-676
-681
-683
-686
-682
-678
-671
-654
-644
-634
-626
-602
-583
-565
-546
-530
-513
-491
-479
-466
-455
-421
-391
-356
-311
-265
-212
-155
-105
-60
-17
31
63
86
99
99
95
83
57
23
-8
-34
-72
-115
-163
-218
-272
-331
-395
-467
-530
-598
-679
-768
-867
-976
-1088
-1212
-1345
-1489
-1626
-1772
-1928
-2082
-2239
-2396
-2546
-2705
-2867
-3033
-3183
-3335
-3482
-3617
-3745
-3861
-3961
-4062
-4155
-4244
-4310
-4387
-4469
-4549
-4633
-4713
-4786
-4855
-4911
-4950
-4962
-4967
-4960
-4945
-4931
-4919
-4917
-4934
-4966
-5005
-5049
-5109
-5172
-5242
-5319
-5391
-5462
-5532
-5600
-5652
-5695
-5735
-5762
-5777
-5780
-5765
-5738
-5700
-5652
-5574
-5481
-5370
-5235
-5081
-4904
-4698
-4481
-4248
-4005
-3740
-3472
-3202
-2928
-2657
-2385
-2109
-1850
-1600
-1361
-1113
-882
-658
-439
-231
-26
171
353
522
683
843
985
1119
1244
1359
1471
1576
1668
1749
1831
1917
1992
2067
2139
2209
2285
2358
2425
2486
2558
2632
2699
2767
2832
2896
2963
3023
3078
3123
3181
3229
3268
3306
3335
3360
3386
3401
3409
3411
3421
3422
3419
3416
3406
3398
3396
3382
3368
3353
3356
3351
3347
3345
3342
3343
3346
3344
3340
3340
3350
3351
3352
3355
3353
3356
3355
3346
3331
3321
3315
3300
3286
3271
3252
3239
3221
3196
3167
3149
3133
3112
3093
3074
3055
3041
3024
3005
2980
2973
2960
2944
2932
2917
2902
2893
2877
2858
2834
2821
2799
2772
2747
2715
2685
2661
2626
2590
2553
2531
2501
2472
2445
2415
2390
2367
2338
2308
2281
2266
2243
2221
2201
2178
2160
2142
2118
2091
2072
2058
2037
2017
1996
1971
1951
1926
1894
1856
1826
1796
1760
1723
1683
1641
1605
1560
1512
1456
1418
1372
1322
1276
1227
1179
1138
1091
1043
994
962
925
888
857
824
796
776
748
719
691
677
656
636
617
598
582
568
548
525
507
498
482
466
451
433
419
405
384
360
344
335
319
306
293
278
272
262
250
235
230
229
224
223
219
216
220
215
208
194
198
195
188
184
177
171
169
161
149
133
133
124
114
108
98
91
91
82
73
65
70
70
71
75
77
85
96
100
102
108
125
132
140
147
152
161
170
172
171
179
192
197
205
211
217
228
236
241
244
256
273
286
304
321
340
367
388
408
422
456
484
509
538
564
591
622
645
664
676
704
722
737
754
766
779
796
803
806
810
824
832
841
852
862
878
897
911
924
943
973
996
1022
1049
1073
1104
1133
1157
1176
1204
1234
1257
1280
1300
1317
1340
1358
1372
1380
1397
1414
1426
1440
1451
1461
1480
1488
1495
1498
1519
1535
1551
1570
1588
1608
1634
1652
1668
1681
1712
1732
1750
1770
1785
1801
1818
1826
1830
1832
1841
1843
1843
1843
1839
1839
1840
1833
1823
1818
1822
1818
1817
1817
1817
1826
1834
1837
1838
1849
1864
1871
1880
1887
1892
1902
1906
1907
1902
1903
1903
1897
1890
1879
1866
1860
1842
1822
1796
1785
1769
1750
1733
1714
1698
1687
1669
1651
1630
1630
1619
1609
1602
1591
1582
1574
1558
1538
1518
1507
1487
1466
1442
1413
1385
1355
1316
1270
1227
1191
1145
1100
1056
1010
970
928
882
833
796
763
725
692
660
629
603
575
543
506
478
446
406
366
321
275
236
186
133
75
29
-21
-75
-127
-181
-233
-278
-330
-382
-437
-470
-512
-554
-592
-631
-666
-695
-728
-761
-789
-805
-827
-848
-868
-893
-915
-938
-971
-1009
-1044
-1073
-1112
-1153
-1196
-1243
-1284
-1330
-1382
-1441
-1491
-1540
-1595
-1648
-1701
-1754
-1801
-1849
-1900
-1953
-1992
-2032
-2073
-2109
-2145
-2177
-2198
-2227
-2256
-2287
-2304
-2326
-2348
-2368
-2390
-2410
-2423
-2448
-2475
-2505
-2517
-2539
-2561
-2581
-2604
-2623
-2639
-2658
-2677
-2690
-2691
-2696
-2697
-2693
-2690
-2678
-2662
-2651
-2640
-2620
-2591
-2569
-2546
-2524
-2505
-2481
-2463
-2451
-2445
-2429
-2414
-2404
-2394
-2385
-2378
-2369
-2363
-2360
-2362
-2349
-2338
-2330
-2315
-2301
-2285
-2259
-2238
-2217
-2196
-2162
-2132
-2103
-2071
-2043
-2012
-1976
-1952
-1931
-1915
-1884
-1865
-1850
-1837
-1828
-1819
-1810
-1808
-1809
-1808
-1798
-1796
-1793
-1790
-1788
-1780
-1770
-1764
-1760
-1746
-1724
-1707
-1685
-1663
-1640
-1610
-1583
-1560
-1541
-1511
-1480
-1454
-1427
-1402
-1379
-1351
-1329
-1312
-1303
-1278
-1260
-1245
-1227
-1213
-1199
-1178
-1164
-1152
-1142
-1117
-1096
-1075
-1049
-1024
-996
-958
-932
-905
-878
-835
-801
-767
-732
-701
-666
-632
-605
-582
-558
-527
-505
-486
-467
-454
-436
-420
-412
-407
-396
-379
-370
-360
-349
-340
-322
-307
-294
-283
-260
-232
-207
-179
-152
-125
-94
-69
-48
-36
-8
13
27
43
52
60
70
71
68
60
64
61
56
55
50
48
54
50
46
42
53
58
66
77
88
105
125
140
154
171
197
214
231
246
257
272
284
288
287
292
301
300
300
297
293
294
293
287
279
281
286
286
289
292
297
309
316
322
324
345
361
374
392
405
418
433
441
444
443
456
460
461
464
462
461
463
454
443
432
431
423
416
410
402
399
399
393
385
382
392
394
399
406
412
425
438
445
448
458
471
476
482
485
486
492
492
487
477
473
470
461
454
445
436
435
427
417
404
411
414
414
420
424
431
443
450
455
458
478
488
495
503
503
502
502
489
469
446
427
397
362
325
281
240
200
151
100
54
18
-25
-66
-105
-146
-180
-215
-256
-299
-332
-359
-392
-421
-450
-478
-500
-526
-557
-591
-617
-640
-668
-691
-716
-739
-754
-776
-799
-827
-836
-850
-866
-878
-891
-902
-906
-915
-922
-932
-922
-918
-914
-903
-895
-882
-863
-851
-839
-825
-800
-782
-764
-747
-733
-717
-701
-694
-690
-684
-670
-665
-660
-656
-655
-649
-646
-649
-657
-653
-646
-645
-639
-633
-626
-612
-599
-588
-579
-560
-539
-521
-500
-482
-463
-435
-418
-404
-396
-373
-358
-349
-340
-335
-331
-322
-324
-327
-336
-327
-329
-332
-331
-334
-332
-326
-324
-321
-315
-297
-284
-269
-251
-235
-212
-188
-172
-160
-143
-119
-104
-89
-77
-70
-59
-54
-56
-64
-63
-61
-64
-66
-69
-72
-69
-68
-69
-73
-65
-55
-48
-34
-21
-5
22
39
55
67
93
113
131
149
164
179
199
208
216
217
236
242
245
248
247
249
252
248
242
239
245
244
245
247
247
254
263
267
271
280
300
312
326
340
352
369
382
389
389
400
412
416
421
422
419
418
414
404
389
386
381
371
365
356
348
347
338
327
313
313
310
306
307
306
309
319
320
319
314
327
328
328
328
324
322
320
312
299
286
281
267
252
236
217
203
189
171
150
137
133
124
118
113
109
114
117
119
118
130
147
158
171
183
193
207
215
219
215
222
224
220
218
210
201
198
184
168
147
140
129
117
109
99
93
95
88
82
75
87
91
96
105
112
123
136
142
144
147
158
159
159
158
155
155
155
147
134
126
125
117
110
102
93
92
88
80
71
74
80
81
85
89
93
103
110
114
114
128
136
137
142
140
136
135
122
103
78
63
41
19
1
-16
-26
-22
-19
-9
8
48
83
121
160
195
232
262
277
278
270
263
237
206
169
124
78
23
-46
-127
-207
-286
-376
-467
-563
-663
-762
-871
-993
-1125
-1253
-1386
-1533
-1685
-1846
-2015
-2184
-2358
-2534
-2716
-2880
-3048
-3221
-3390
-3561
-3728
-3884
-4038
-4182
-4317
-4427
-4530
-4622
-4700
-4773
-4836
-4891
-4957
-5027
-5101
-5163
-5230
-5290
-5335
-5365
-5373
-5363
-5345
-5317
-5280
-5230
-5188
-5148
-5112
-5087
-5063
-5049
-5051
-5066
-5086
-5111
-5152
-5197
-5248
-5304
-5350
-5397
-5441
-5478
-5492
-5488
-5471
-5435
-5380
-5305
-5201
-5080
-4939
-4782
-4588
-4382
-4164
-3931
-3690
-3440
-3180
-2924
-2668
-2418
-2157
-1908
-1668
-1433
-1209
-991
-776
-578
-392
-214
-34
128
279
420
547
669
782
880
968
1052
1141
1216
1288
1357
1421
1488
1552
1609
1660
1719
1782
1839
1901
1962
2024
2093
2158
2220
2277
2340
2405
2461
2517
2568
2615
2665
2704
2735
2754
2786
2806
2818
2828
2831
2831
2834
2827
2817
2803
2803
2795
2785
2780
2772
2767
2771
2769
2767
2769
2784
2795
2807
2822
2835
2852
2870
2880
2885
2893
2908
2912
2915
2915
2908
2903
2893
2874
2849
2831
2816
2793
2772
2750
2728
2712
2693
2672
2650
2638
2632
2624
2621
2619
2619
2629
2631
2632
2625
2636
2638
2635
2632
2625
2617
2611
2596
2576
2549
2535
2509
2481
2455
2423
2394
2370
2338
2305
2273
2254
2229
2207
2186
2165
2151
2142
2127
2111
2101
2102
2093
2085
2076
2064
2055
2042
2022
1996
1977
1960
1932
1904
1873
1839
1810
1775
1735
1691
1655
1622
1585
1552
1518
1487
1464
1435
1405
1373
1360
1343
1325
1310
1294
1280
1270
1253
1233
1206
1196
1175
1149
1126
1098
1072
1048
1014
979
944
919
888
857
829
799
777
759
738
718
706
705
698
696
698
702
714
727
736
743
761
782
795
810
823
833
846
853
854
848
848
846
838
830
818
806
799
782
762
737
727
712
695
681
666
653
648
636
626
613
621
620
619
622
621
623
627
622
615
607
607
600
592
583
572
565
560
548
533
523
523
516
511
507
502
506
508
508
505
514
527
534
544
554
564
578
591
600
605
620
635
644
656
663
670
684
688
690
687
700
707
713
722
728
735
749
754
759
760
783
797
812
831
849
871
896
917
937
960
993
1019
1045
1071
1095
1123
1151
1170
1184
1204
1229
1245
1261
1276
1287
1304
1317
1323
1325
1336
1349
1355
1363
1371
1379
1393
1405
1416
1424
1445
1466
1483
1505
1523
1541
1565
1579
1589
1595
1613
1623
1629
1635
1633
1631
1632
1622
1608
1589
1589
1578
1565
1554
1541
1529
1520
1505
1489
1475
1473
1463
1457
1453
1449
1450
1453
1450
1443
1442
1448
1445
1443
1441
1435
1433
1426
1412
1391
1378
1364
1343
1322
1300
1276
1255
1232
1206
1174
1156
1134
1110
1091
1069
1050
1041
1027
1012
997
995
989
981
975
964
953
948
929
908
882
872
850
826
800
770
740
709
670
627
586
555
517
479
443
405
372
339
302
262
231
209
182
159
137
116
101
83
60
31
12
-6
-32
-58
-87
-118
-145
-179
-218
-265
-298
-338
-383
-426
-472
-518
-556
-600
-645
-691
-723
-758
-795
-826
-858
-886
-905
-933
-960
-988
-1000
-1021
-1042
-1064
-1088
-1110
-1132
-1163
-1197
-1231
-1257
-1293
-1330
-1369
-1413
-1452
-1493
-1541
-1593
-1636
-1671
-1714
-1753
-1790
-1828
-1857
-1889
-1925
-1963
-1988
-2008
-2032
-2053
-2073
-2092
-2105
-2125
-2147
-2177
-2189
-2208
-2230
-2248
-2268
-2288
-2301
-2321
-2341
-2364
-2372
-2385
-2397
-2404
-2413
-2415
-2408
-2407
-2403
-2398
-2376
-2358
-2338
-2313
-2287
-2256
-2221
-2193
-2166
-2138
-2100
-2072
-2045
-2019
-1998
-1974
-1951
-1937
-1928
-1912
-1891
-1879
-1865
-1853
-1842
-1824
-1810
-1800
-1792
-1774
-1751
-1733
-1712
-1692
-1670
-1640
-1616
-1592
-1575
-1538
-1508
-1481
-1451
-1425
-1399
-1368
-1346
-1328
-1316
-1291
-1277
-1266
-1254
-1248
-1240
-1226
-1223
-1222
-1222
-1212
-1210
-1209
-1207
-1207
-1202
-1193
-1190
-1187
-1179
-1159
-1145
-1128
-1109
-1091
-1065
-1040
-1020
-1003
-979
-950
-930
-908
-889
-873
-852
-836
-825
-819
-804
-787
-776
-764
-754
-744
-728
-719
-711
-710
-688
-672
-657
-638
-619
-598
-570
-547
-525
-507
-472
-445
-421
-393
-370
-345
-317
-299
-285
-273
-253
-241
-229
-217
-209
-197
-185
-179
-177
-171
-155
-148
-138
-127
-116
-98
-79
-64
-52
-29
-1
20
44
67
88
115
137
154
167
187
206
219
232
240
245
257
259
258
252
263
268
269
273
274
276
284
285
286
284
301
311
321
336
349
366
388
402
413
426
447
460
473
486
494
505
516
517
513
512
519
515
513
509
502
500
496
487
473
469
469
463
460
458
457
463
468
471
473
483
496
504
514
520
525
538
540
538
530
537
536
530
524
513
501
493
477
458
434
430
415
399
387
371
359
352
339
326
317
320
320
322
328
332
340
350
352
350
352
361
360
360
358
353
351
345
332
312
302
293
277
263
248
234
225
214
201
186
183
181
176
177
178
182
197
204
211
214
232
244
251
259
261
264
269
263
255
240
243
233
220
208
191
174
158
135
109
87
75
56
39
22
3
-12
-25
-45
-68
-85
-94
-110
-126
-142
-163
-179
-200
-229
-265
-290
-316
-349
-380
-413
-448
-478
-510
-544
-581
-606
-629
-656
-677
-699
-717
-725
-739
-752
-766
-763
-763
-764
-760
-757
-750
-735
-728
-721
-719
-698
-689
-683
-675
-670
-664
-656
-657
-661
-665
-661
-666
-672
-679
-689
-696
-701
-713
-728
-736
-735
-740
-743
-744
-744
-736
-729
-725
-724
-709
-691
-678
-663
-649
-638
-623
-611
-605
-604
-594
-588
-588
-586
-589
-594
-593
-602
-615
-633
-640
-653
-670
-685
-703
-718
-724
-737
-749
-760
-748
-743
-736
-723
-710
-690
-667
-648
-632
-614
-586
-569
-552
-536
-525
-510
-496
-490
-488
-480
-465
-458
-449
-441
-435
-423
-413
-408
-406
-390
-371
-355
-334
-312
-288
-258
-230
-204
-182
-146
-115
-88
-59
-36
-14
13
29
42
49
68
80
89
101
108
117
131
134
135
134
151
158
166
176
186
200
216
228
239
253
278
295
314
334
351
371
391
402
408
421
439
448
457
464
466
474
477
475
468
471
476
475
477
477
477
482
484
485
481
495
506
515
528
540
553
573
584
593
598
614
623
629
636
637
639
645
637
625
609
607
595
582
569
554
542
532
515
496
479
474
462
452
444
437
437
438
434
427
430
439
440
443
444
444
451
453
451
444
446
449
445
440
433
424
418
407
392
371
367
357
344
335
322
312
308
299
289
279
285
286
287
292
295
300
311
309
305
299
305
302
298
294
286
280
274
261
244
227
221
207
193
181
167
159
151
137
119
111
109
101
98
96
95
104
110
113
115
125
138
144
151
154
156
163
162
158
145
149
143
131
120
104
87
72
51
29
3
-7
-24
-43
-58
-78
-94
-102
-119
-135
-150
-151
-157
-162
-166
-173
-176
-181
-194
-211
-227
-235
-254
-274
-296
-323
-346
-372
-406
-443
-473
-496
-526
-550
-574
-597
-610
-625
-643
-662
-669
-672
-677
-679
-679
-677
-667
-663
-660
-663
-648
-641
-639
-635
-635
-635
-633
-638
-646
-659
-657
-664
-674
-682
-694
-704
-708
-719
-731
-740
-736
-737
-734
-729
-723
-711
-696
-686
-676
-661
-635
-616
-597
-578
-563
-544
-528
-521
-520
-511
-501
-500
-498
-501
-507
-509
-517
-531
-551
-563
-573
-587
-597
-607
-614
-611
-612
-612
-613
-594
-578
-564
-544
-525
-505
-479
-461
-445
-435
-408
-393
-381
-368
-361
-354
-344
-344
-346
-347
-339
-338
-337
-336
-337
-333
-326
-325
-324
-316
-297
-283
-266
-246
-228
-202
-177
-158
-143
-118
-92
-74
-54
-37
-23
-6
6
12
12
18
24
25
28
28
28
37
36
34
28
40
48
56
68
81
99
126
148
171
192
234
265
296
329
359
390
424
449
470
491
519
537
552
565
573
584
595
599
599
604
618
625
633
642
650
664
676
683
687
704
724
737
754
768
782
799
812
818
819
828
834
835
837
834
829
830
820
806
785
779
767
753
741
726
714
708
694
679
661
663
655
647
644
639
639
642
639
635
634
642
643
643
644
641
642
644
639
630
627
632
628
625
622
618
620
619
613
603
605
608
606
607
605
602
602
600
595
587
594
602
610
628
648
677
721
760
802
842
896
943
985
1023
1049
1065
1074
1058
1026
979
940
882
816
747
670
592
510
417
319
220
130
31
-68
-170
-278
-387
-501
-628
-765
-904
-1042
-1194
-1350
-1513
-1679
-1839
-2001
-2166
-2335
-2491
-2643
-2802
-2956
-3106
-3248
-3374
-3489
-3592
-3687
-3753
-3810
-3859
-3895
-3929
-3959
-3977
-3998
-4016
-4030
-4019
-3998
-3963
-3909
-3845
-3767
-3677
-3599
-3526
-3466
-3399
-3355
-3324
-3307
-3305
-3310
-3324
-3357
-3405
-3458
-3504
-3562
-3623
-3684
-3747
-3801
-3848
-3890
-3924
-3937
-3930
-3916
-3884
-3833
-3764
-3666
-3551
-3423
-3283
-3117
-2939
-2758
-2571
-2383
-2198
-2012
-1834
-1666
-1512
-1351
-1205
-1073
-946
-831
-723
-616
-522
-437
-360
-279
-208
-145
-85
-32
20
77
124
169
211
270
319
368
418
465
515
565
609
650
693
745
788
831
873
913
956
997
1030
1057
1090
1128
1156
1186
1212
1236
1265
1289
1306
1316
1335
1354
1366
1379
1390
1399
1411
1419
1422
1418
1430
1436
1438
1441
1440
1438
1441
1435
1426
1411
1407
1396
1380
1365
1344
1325
1313
1290
1268
1245
1239
1228
1220
1214
1208
1208
1211
1209
1207
1207
1219
1223
1228
1234
1237
1246
1253
1253
1249
1252
1261
1263
1267
1269
1268
1274
1276
1273
1265
1266
1269
1265
1262
1258
1255
1258
1257
1253
1244
1254
1257
1258
1263
1264
1267
1274
1275
1274
1269
1278
1279
1277
1277
1272
1268
1271
1263
1252
1240
1240
1233
1226
1218
1208
1202
1199
1190
1180
1175
1183
1184
1188
1193
1198
1209
1220
1225
1227
1238
1254
1263
1274
1282
1289
1300
1306
1305
1299
1300
1302
1299
1296
1292
1287
1288
1282
1273
1258
1262
1260
1257
1258
1258
1262
1271
1276
1279
1279
1294
1300
1305
1312
1315
1321
1331
1331
1329
1325
1330
1325
1319
1312
1300
1292
1284
1269
1251
1237
1234
1222
1212
1203
1193
1189
1186
1178
1170
1173
1182
1186
1194
1200
1206
1218
1225
1229
1228
1235
1244
1246
1249
1247
1244
1247
1238
1225
1206
1203
1193
1180
1170
1158
1148
1143
1131
1118
1102
1104
1098
1093
1094
1092
1095
1105
1106
1105
1104
1112
1113
1113
1113
1109
1110
1110
1101
1089
1080
1079
1068
1056
1043
1027
1016
1003
986
965
954
948
936
928
920
914
917
918
918
917
926
938
946
956
963
969
982
985
985
979
989
991
990
988
983
978
976
966
953
936
937
928
919
914
908
906
910
908
907
909
923
932
943
957
970
988
1007
1018
1026
1038
1057
1065
1073
1079
1081
1087
1089
1082
1069
1065
1061
1048
1037
1024
1010
1002
991
978
963
956
952
943
937
929
921
922
913
903
887
886
879
867
855
837
819
803
777
749
713
693
660
622
586
545
505
468
425
381
341
313
281
253
230
208
193
182
168
152
144
147
144
142
141
137
140
139
132
119
116
113
102
92
80
65
54
40
22
1
-10
-21
-36
-47
-62
-74
-76
-86
-95
-106
-101
-99
-100
-99
-102
-104
-102
-111
-124
-142
-143
-157
-175
-193
-216
-238
-259
-288
-320
-350
-371
-398
-425
-450
-478
-501
-522
-550
-578
-599
-609
-624
-635
-643
-650
-649
-649
-654
-663
-660
-655
-657
-658
-660
-664
-665
-669
-679
-696
-702
-713
-731
-748
-769
-791
-806
-831
-857
-887
-903
-923
-944
-961
-979
-992
-996
-1007
-1017
-1027
-1017
-1015
-1012
-1006
-1003
-997
-991
-990
-992
-992
-983
-982
-983
-984
-990
-993
-997
-1008
-1022
-1029
-1029
-1035
-1037
-1039
-1041
-1034
-1030
-1028
-1028
-1015
-998
-986
-969
-951
-932
-908
-885
-866
-853
-826
-805
-789
-770
-756
-743
-724
-714
-707
-705
-691
-684
-680
-675
-674
-670
-660
-660
-660
-663
-648
-642
-636
-628
-622
-610
-595
-585
-575
-562
-537
-520
-502
-484
-470
-451
-434
-424
-418
-407
-390
-383
-375
-370
-369
-362
-360
-365
-374
-373
-369
-369
-367
-366
-364
-357
-354
-352
-354
-338
-325
-314
-298
-284
-268
-246
-231
-219
-212
-193
-182
-174
-164
-160
-155
-144
-147
-152
-161
-156
-162
-169
-176
-185
-190
-193
-202
-213
-221
-218
-223
-225
-225
-224
-217
-207
-202
-198
-186
-166
-155
-144
-134
-128
-117
-112
-114
-122
-122
-120
-125
-129
-136
-145
-149
-159
-172
-191
-193
-199
-209
-213
-221
-227
-227
-232
-237
-244
-235
-231
-227
-218
-212
-204
-188
-185
-184
-185
-174
-171
-170
-168
-169
-168
-167
-175
-188
-200
-204
-219
-234
-248
-265
-276
-287
-304
-324
-335
-340
-351
-359
-368
-377
-378
-383
-390
-401
-404
-405
-414
-423
-435
-450
-461
-480
-503
-534
-547
-568
-594
-618
-647
-675
-699
-729
-762
-797
-816
-841
-866
-885
-906
-922
-928
-942
-955
-966
-962
-964
-965
-963
-963
-958
-952
-953
-958
-960
-952
-954
-957
-960
-966
-966
-967
-975
-986
-990
-988
-994
-996
-998
-1000
-992
-986
-982
-979
-965
-946
-931
-913
-895
-876
-849
-830
-813
-804
-777
-757
-743
-728
-719
-712
-703
-702
-703
-710
-701
-699
-699
-694
-693
-689
-678
-675
-673
-668
-650
-636
-619
-599
-578
-551
-520
-497
-475
-451
-418
-395
-375
-356
-343
-328
-317
-315
-318
-313
-305
-305
-303
-301
-301
-293
-289
-288
-290
-283
-274
-269
-260
-251
-241
-221
-207
-193
-182
-153
-129
-106
-81
-59
-36
-10
8
23
31
55
66
75
85
87
89
94
90
82
75
78
73
69
67
62
63
66
63
59
61
76
85
97
112
125
146
166
180
189
207
226
237
249
258
264
274
279
277
269
267
265
257
250
241
231
230
220
209
193
195
193
190
190
190
193
204
209
215
218
242
255
267
281
290
301
315
320
322
324
334
336
336
336
333
333
334
328
319
317
325
325
328
332
336
347
356
361
363
377
397
411
429
447
464
485
503
514
519
532
542
545
549
548
545
548
539
526
508
503
492
479
468
456
447
444
435
426
414
423
422
422
426
428
434
443
447
449
452
464
468
469
470
465
463
460
447
430
417
410
394
378
360
339
322
301
275
244
225
210
190
175
160
146
139
133
126
116
120
124
125
129
131
131
138
133
125
109
106
96
83
69
52
34
22
-2
-28
-59
-71
-93
-115
-133
-152
-166
-176
-190
-203
-213
-210
-213
-213
-212
-212
-207
-201
-201
-204
-203
-195
-197
-200
-206
-215
-219
-228
-243
-264
-273
-281
-296
-308
-321
-334
-341
-351
-363
-379
-379
-381
-385
-384
-386
-386
-377
-376
-377
-380
-370
-365
-363
-359
-358
-356
-348
-353
-360
-372
-367
-374
-382
-388
-398
-404
-407
-417
-429
-438
-437
-444
-448
-449
-451
-446
-439
-436
-434
-423
-403
-390
-374
-357
-343
-322
-306
-296
-291
-277
-263
-256
-250
-247
-247
-244
-247
-254
-267
-267
-271
-279
-283
-291
-298
-298
-305
-311
-319
-312
-307
-300
-287
-275
-260
-235
-221
-207
-195
-166
-147
-129
-110
-96
-79
-63
-55
-52
-48
-37
-36
-37
-38
-43
-45
-47
-58
-72
-80
-81
-90
-95
-99
-102
-95
-89
-84
-81
-65
-46
-30
-13
3
17
36
48
58
60
77
88
92
97
96
93
95
88
79
67
68
64
59
57
51
49
55
51
48
46
61
70
81
95
107
124
142
154
162
170
188
195
202
207
208
212
215
210
199
195
197
190
185
179
173
174
172
166
157
160
167
171
178
186
197
215
230
243
252
278
298
312
328
339
350
365
372
377
377
390
395
396
400
397
396
400
394
387
379
385
385
386
388
388
393
399
400
400
404
420
427
437
448
456
469
481
484
482
488
497
498
499
498
493
494
488
476
458
448
438
423
410
396
383
379
369
360
345
349
348
344
345
345
348
358
364
369
370
384
389
390
394
395
402
418
430
446
468
506
540
574
609
638
666
691
700
697
685
672
641
600
551
494
436
373
298
214
133
52
-41
-137
-238
-346
-453
-571
-701
-844
-987
-1136
-1298
-1467
-1646
-1832
-2017
-2214
-2414
-2619
-2805
-2997
-3189
-3376
-3562
-3741
-3909
-4074
-4228
-4369
-4476
-4573
-4654
-4713
-4759
-4788
-4800
-4811
-4821
-4829
-4826
-4830
-4834
-4833
-4827
-4804
-4765
-4718
-4662
-4594
-4512
-4437
-4366
-4300
-4245
-4194
-4156
-4135
-4127
-4121
-4123
-4144
-4172
-4210
-4254
-4294
-4338
-4382
-4422
-4447
-4457
-4458
-4441
-4412
-4365
-4294
-4214
-4116
-4006
-3859
-3703
-3536
-3356
-3169
-2974
-2771
-2573
-2377
-2187
-1982
-1792
-1608
-1427
-1255
-1085
-917
-762
-614
-470
-323
-190
-64
55
164
269
367
449
522
592
666
726
783
836
885
936
985
1027
1065
1113
1166
1212
1260
1308
1354
1405
1453
1497
1538
1587
1637
1682
1728
1770
1809
1853
1884
1908
1923
1949
1966
1975
1983
1984
1984
1987
1978
1966
1947
1946
1933
1919
1907
1893
1883
1876
1865
1854
1847
1851
1851
1854
1861
1868
1883
1900
1911
1920
1932
1952
1962
1971
1978
1980
1986
1988
1982
1969
1965
1961
1949
1937
1923
1906
1894
1879
1862
1843
1835
1829
1819
1814
1807
1801
1804
1797
1790
1779
1784
1784
1783
1783
1780
1777
1777
1766
1752
1731
1729
1714
1697
1682
1663
1647
1632
1610
1586
1565
1554
1538
1523
1512
1500
1496
1496
1490
1484
1485
1495
1499
1507
1516
1524
1541
1556
1567
1574
1592
1613
1625
1639
1652
1663
1678
1690
1699
1702
1715
1726
1732
1741
1745
1750
1762
1764
1764
1760
1771
1776
1778
1783
1784
1786
1795
1793
1790
1783
1795
1797
1798
1801
1799
1800
1801
1795
1786
1777
1777
1769
1761
1753
1741
1733
1725
1708
1688
1672
1663
1646
1630
1615
1596
1584
1567
1546
1519
1504
1491
1474
1459
1445
1430
1421
1411
1397
1378
1371
1361
1346
1333
1316
1299
1289
1269
1247
1221
1207
1187
1165
1144
1119
1095
1077
1048
1018
986
972
948
925
905
884
868
855
838
821
808
806
799
793
788
780
778
776
767
755
751
753
749
745
741
733
732
726
716
700
694
689
679
671
663
655
653
648
641
629
634
635
635
640
643
648
662
669
675
677
691
699
704
711
712
715
724
720
714
705
711
705
698
691
682
677
673
665
656
652
660
661
666
673
678
691
705
715
724
742
767
784
802
819
833
852
864
870
869
877
884
883
883
880
873
871
862
849
829
827
818
807
800
791
785
787
784
780
776
786
791
795
803
807
815
829
832
833
831
842
844
843
841
835
831
826
814
799
786
782
769
756
745
731
724
717
705
690
684
685
680
677
674
669
672
671
666
658
659
662
660
658
655
650
650
642
629
608
604
592
576
563
545
528
516
497
476
452
443
428
413
402
389
380
380
371
361
352
357
354
351
348
341
339
336
325
311
297
291
273
254
233
208
186
163
131
96
69
46
16
-12
-41
-71
-94
-120
-148
-177
-195
-208
-224
-237
-250
-263
-269
-284
-302
-328
-336
-352
-372
-392
-416
-441
-464
-494
-529
-568
-591
-623
-656
-684
-716
-744
-765
-794
-823
-849
-861
-877
-890
-899
-908
-909
-907
-910
-915
-917
-909
-910
-911
-913
-920
-923
-928
-941
-960
-971
-980
-998
-1015
-1034
-1055
-1071
-1089
-1110
-1133
-1145
-1153
-1163
-1169
-1175
-1178
-1172
-1171
-1169
-1171
-1152
-1137
-1125
-1108
-1093
-1076
-1057
-1044
-1035
-1030
-1010
-999
-991
-981
-976
-969
-958
-956
-956
-955
-944
-938
-932
-924
-918
-907
-894
-889
-886
-880
-865
-858
-850
-843
-838
-829
-823
-824
-832
-832
-830
-838
-845
-854
-864
-870
-880
-896
-915
-927
-939
-955
-969
-987
-1004
-1011
-1026
-1040
-1056
-1052
-1051
-1051
-1046
-1041
-1032
-1016
-1005
-994
-984
-955
-937
-920
-900
-886
-870
-852
-843
-838
-834
-821
-817
-815
-813
-815
-814
-812
-819
-828
-832
-825
-826
-823
-818
-812
-799
-785
-777
-771
-754
-732
-717
-697
-678
-660
-637
-617
-603
-593
-577
-563
-556
-548
-545
-543
-534
-537
-542
-553
-549
-551
-557
-560
-565
-568
-565
-569
-571
-576
-559
-551
-543
-531
-521
-507
-490
-478
-468
-455
-434
-420
-407
-395
-386
-375
-364
-363
-367
-367
-360
-363
-365
-368
-375
-375
-379
-388
-401
-403
-401
-404
-404
-403
-400
-392
-384
-380
-379
-367
-356
-349
-339
-334
-328
-316
-313
-314
-320
-312
-311
-313
-316
-323
-329
-330
-340
-353
-370
-368
-377
-386
-392
-400
-405
-406
-412
-419
-423
-415
-415
-415
-414
-416
-413
-410
-415
-423
-424
-418
-419
-418
-419
-422
-419
-420
-429
-443
-445
-446
-453
-457
-463
-467
-465
-466
-468
-473
-464
-456
-449
-436
-423
-407
-382
-366
-351
-340
-316
-298
-283
-268
-257
-246
-230
-226
-225
-230
-218
-219
-223
-226
-234
-238
-241
-250
-262
-270
-268
-274
-278
-281
-284
-280
-273
-270
-267
-254
-232
-217
-198
-180
-164
-141
-123
-110
-103
-86
-68
-57
-47
-40
-36
-30
-29
-33
-44
-41
-43
-49
-51
-57
-61
-58
-61
-65
-71
-62
-56
-50
-40
-31
-18
2
12
21
26
46
56
63
71
75
82
87
85
79
72
74
67
59
52
43
41
40
34
26
26
35
37
41
46
52
67
81
92
101
123
149
170
194
216
237
261
278
291
298
319
333
342
352
357
359
366
364
359
350
352
348
343
340
335
332
336
328
319
307
312
308
303
299
293
288
285
273
259
245
241
226
212
198
181
169
155
134
110
93
82
64
48
32
15
7
-2
-14
-26
-26
-21
-19
-15
-10
-4
9
18
24
25
42
53
59
67
69
71
77
73
67
57
59
55
48
44
36
30
30
19
6
-7
-6
-12
-17
-19
-22
-20
-15
-17
-20
-19
-7
-2
6
16
24
37
50
55
56
63
75
78
82
84
85
92
94
92
85
86
88
85
82
78
74
77
74
70
61
71
76
79
86
92
100
113
121
127
129
144
151
156
163
163
166
172
165
156
145
145
138
130
123
112
105
99
85
70
58
58
51
46
45
43
49
55
57
56
65
79
87
96
104
110
122
128
129
124
125
126
119
113
103
91
86
71
54
29
23
9
-8
-21
-36
-47
-53
-64
-75
-87
-81
-83
-86
-87
-94
-99
-102
-117
-136
-155
-165
-183
-202
-221
-243
-262
-279
-304
-331
-354
-365
-383
-398
-411
-424
-430
-436
-446
-458
-459
-453
-452
-445
-437
-429
-412
-398
-388
-379
-362
-343
-330
-314
-302
-291
-273
-266
-263
-270
-261
-262
-269
-275
-285
-294
-299
-310
-323
-339
-338
-346
-354
-358
-363
-364
-357
-354
-351
-343
-324
-310
-294
-277
-263
-245
-226
-216
-210
-201
-184
-176
-170
-167
-169
-167
-169
-179
-193
-199
-201
-210
-215
-222
-228
-227
-228
-232
-237
-231
-221
-212
-199
-185
-169
-142
-124
-108
-99
-74
-57
-44
-30
-20
-10
4
9
9
3
13
11
7
4
-3
-8
-9
-17
-27
-34
-32
-35
-36
-35
-34
-27
-16
-12
-8
3
22
34
47
57
64
75
81
78
69
69
69
59
50
38
23
12
-3
-23
-46
-60
-72
-88
-99
-111
-122
-122
-129
-136
-145
-136
-130
-125
-114
-105
-93
-76
-67
-60
-59
-40
-33
-28
-20
-16
-10
-2
0
-1
-1
7
8
9
12
12
17
25
27
27
34
51
60
72
86
100
121
141
156
169
192
218
236
256
273
286
303
316
324
326
337
345
347
351
349
346
349
341
331
317
317
313
308
307
305
307
315
316
316
314
332
341
349
360
367
376
385
387
386
384
389
385
378
371
359
351
343
327
308
294
288
274
264
253
242
240
236
231
223
230
241
247
257
267
277
292
304
313
315
329
340
343
348
347
345
348
340
329
314
312
304
293
285
274
267
267
257
247
235
243
243
244
248
251
259
269
275
278
283
299
307
315
323
327
334
340
338
329
324
325
315
306
294
279
270
257
240
217
206
198
186
176
167
160
160
159
158
154
166
176
183
193
200
207
220
224
226
222
228
226
217
207
189
169
154
125
94
60
44
21
-2
-21
-40
-53
-63
-75
-87
-93
-87
-87
-83
-76
-70
-57
-43
-36
-31
-20
-4
5
15
22
28
40
47
47
41
43
46
41
37
32
25
24
19
11
-3
0
-1
-7
-8
-12
-13
-7
-6
-5
-7
4
9
13
19
19
22
30
25
19
11
17
13
8
4
-5
-11
-16
-29
-44
-58
-59
-69
-76
-82
-90
-92
-94
-102
-111
-111
-102
-100
-93
-86
-79
-65
-56
-51
-53
-46
-38
-37
-35
-34
-33
-27
-29
-35
-50
-47
-51
-59
-62
-69
-74
-74
-79
-86
-94
-86
-79
-70
-50
-27
9
61
110
163
221
293
356
416
469
511
545
567
568
552
526
499
453
400
340
270
198
116
22
-82
-180
-274
-377
-480
-588
-701
-814
-937
-1070
-1211
-1346
-1483
-1626
-1770
-1920
-2071
-2215
-2365
-2516
-2674
-2813
-2958
-3108
-3253
-3398
-3537
-3661
-3781
-3892
-3997
-4077
-4155
-4227
-4288
-4351
-4411
-4466
-4532
-4598
-4659
-4699
-4732
-4747
-4743
-4723
-4685
-4635
-4587
-4544
-4505
-4466
-4447
-4440
-4445
-4465
-4489
-4524
-4577
-4644
-4707
-4767
-4836
-4903
-4970
-5034
-5086
-5132
-5168
-5190
-5186
-5162
-5125
-5066
-4988
-4887
-4755
-4607
-4438
-4254
-4034
-3805
-3568
-3320
-3071
-2820
-2566
-2323
-2087
-1862
-1630
-1417
-1217
-1023
-843
-670
-500
-347
-205
-72
63
183
295
401
500
599
695
780
860
942
1031
1112
1193
1276
1356
1442
1526
1603
1674
1753
1833
1904
1974
2039
2099
2161
2216
2262
2303
2348
2391
2425
2457
2482
2503
2529
2542
2550
2550
2567
2575
2580
2587
2590
2595
2603
2604
2604
2599
2612
2616
2620
2627
2630
2635
2643
2642
2638
2633
2636
2630
2623
2615
2603
2595
2586
2569
2548
2529
2519
2500
2483
2467
2449
2438
2427
2412
2394
2388
2385
2376
2371
2365
2358
2356
2353
2346
2335
2333
2332
2325
2319
2309
2298
2292
2276
2257
2231
2220
2202
2181
2161
2137
2115
2097
2071
2044
2014
2003
1984
1966
1953
1937
1924
1914
1897
1876
1856
1844
1824
1804
1783
1758
1736
1714
1685
1650
1621
1599
1570
1542
1515
1487
1465
1440
1411
1377
1355
1335
1309
1286
1263
1241
1225
1210
1194
1175
1168
1162
1154
1149
1141
1135
1138
1131
1122
1110
1112
1109
1102
1095
1083
1072
1064
1046
1026
1000
993
975
956
939
918
901
886
865
844
826
820
808
801
797
793
794
797
791
783
782
788
786
786
785
782
784
783
775
762
758
755
743
732
720
708
699
688
673
654
648
641
632
627
620
617
624
625
626
624
637
646
653
661
666
672
684
686
685
679
691
690
687
684
676
671
667
656
644
635
637
631
628
627
626
631
639
642
645
657
680
697
719
742
764
792
816
835
848
871
895
912
930
945
956
970
978
980
975
982
985
982
983
980
979
987
987
986
984
996
1005
1014
1027
1038
1054
1079
1093
1107
1117
1145
1162
1177
1193
1203
1216
1228
1232
1232
1233
1243
1243
1242
1240
1234
1232
1230
1222
1211
1207
1212
1210
1213
1218
1223
1236
1248
1256
1263
1283
1306
1325
1345
1363
1381
1401
1417
1427
1430
1446
1455
1458
1464
1464
1463
1467
1461
1451
1438
1436
1428
1418
1411
1402
1396
1399
1393
1388
1381
1393
1396
1399
1406
1411
1420
1431
1436
1438
1442
1454
1457
1459
1459
1455
1454
1451
1440
1424
1414
1410
1395
1382
1367
1350
1340
1327
1310
1291
1284
1281
1275
1272
1270
1270
1275
1277
1277
1271
1282
1286
