-8382
-8688
-8983
-9260
-9523
-9777
-10024
-10266
-10496
-10710
-10923
-11129
-11340
-11530
-11710
-11872
-12016
-12142
-12236
-12297
-12333
-12336
-12314
-12249
-12158
-12037
-11892
-11728
-11530
-11304
-11062
-10794
-10508
-10187
-9848
-9487
-9114
-8729
-8325
-7912
-7497
-7077
-6659
-6232
-5810
-5392
-4985
-4584
-4183
-3791
-3411
-3044
-2685
-2334
-1998
-1675
-1373
-1083
-800
-534
-283
-50
173
386
585
770
937
1098
1257
1402
1546
1675
1811
1940
2065
2184
2293
2403
2513
2615
2716
2806
2904
2992
3078
3154
3217
3282
3345
3393
3437
3470
3504
3531
3552
3565
3569
3576
3581
3579
3575
3567
3569
3568
3569
3566
3566
3578
3591
3606
3621
3641
3669
3698
3727
3752
3779
3816
3848
3881
3908
3936
3964
3989
4008
4018
4029
4043
4046
4050
4040
4040
4036
4031
4021
4006
3995
3988
3977
3971
3957
3958
3955
3956
3954
3947
3948
3954
3955
3958
3957
3964
3967
3970
3965
3955
3950
3942
3927
3909
3884
3866
3842
3817
3784
3749
3723
3694
3664
3630
3602
3579
3556
3535
3511
3490
3479
3466
3455
3442
3433
3426
3420
3411
3395
3384
3380
3366
3356
3333
3321
3304
3287
3266
3240
3217
3198
3172
3150
3119
3103
3082
3063
3041
3015
2997
2984
2968
2954
2940
2934
2928
2924
2915
2904
2900
2896
2888
2878
2866
2861
2852
2843
2826
2808
2797
2782
2767
2746
2728
2715
2700
2685
2666
2649
2640
2628
2618
2603
2593
2586
2579
2572
2556
2546
2545
2535
2529
2513
2506
2498
2490
2479
2463
2451
2445
2432
2423
2402
2398
2387
2378
2365
2348
2338
2331
2322
2314
2303
2302
2298
2295
2288
2279
2277
2275
2270
2263
2255
2255
2252
2248
2237
2226
2224
2219
2213
2201
2196
2194
2191
2187
2178
2170
2168
2164
2161
2152
2149
2147
2146
2142
2130
2124
2125
2119
2116
2105
2104
2101
2099
2096
2088
2089
2096
2096
2102
2096
2107
2112
2117
2120
2119
2124
2132
2137
2142
2144
2155
2161
2167
2167
2164
2168
2172
2173
2173
2172
2178
2181
2183
2178
2173
2177
2177
2177
2173
2174
2178
2180
2182
2177
2173
2173
2169
2164
2152
2147
2140
2133
2123
2103
2088
2079
2061
2045
2019
2003
1985
1968
1950
1928
1914
1908
1895
1889
1874
1875
1873
1873
1872
1869
1873
1880
1883
1887
1885
1892
1894
1896
1892
1885
1886
1886
1883
1877
1870
1870
1867
1864
1855
1846
1847
1844
1842
1837
1837
1841
1845
1847
1845
1845
1851
1854
1860
1858
1865
1871
1876
1879
1874
1872
1876
1872
1870
1859
1858
1854
1851
1843
1828
1819
1817
1804
1795
1777
1772
1763
1755
1744
1732
1726
1722
1714
1706
1694
1690
1683
1675
1661
1643
1632
1619
1602
1580
1557
1538
1515
1489
1456
1423
1397
1367
1335
1298
1264
1232
1197
1161
1119
1079
1046
1008
972
927
892
854
815
771
720
671
627
576
526
468
418
366
314
257
194
137
85
24
-33
-98
-151
-207
-261
-319
-379
-433
-486
-543
-601
-662
-714
-771
-826
-887
-951
-1006
-1063
-1123
-1185
-1247
-1302
-1360
-1418
-1481
-1542
-1592
-1646
-1697
-1753
-1803
-1849
-1894
-1939
-1987
-2033
-2071
-2113
-2151
-2197
-2231
-2268
-2304
-2341
-2384
-2421
-2452
-2487
-2519
-2556
-2581
-2608
-2632
-2657
-2689
-2711
-2726
-2748
-2765
-2788
-2799
-2812
-2822
-2835
-2850
-2857
-2862
-2871
-2879
-2891
-2893
-2900
-2905
-2915
-2927
-2929
-2932
-2937
-2944
-2950
-2950
-2951
-2952
-2959
-2963
-2956
-2953
-2948
-2947
-2942
-2933
-2925
-2917
-2913
-2906
-2891
-2882
-2870
-2868
-2852
-2840
-2829
-2822
-2820
-2814
-2804
-2798
-2789
-2788
-2775
-2766
-2756
-2748
-2747
-2736
-2719
-2709
-2696
-2688
-2670
-2654
-2638
-2626
-2616
-2600
-2583
-2570
-2556
-2545
-2525
-2509
-2493
-2484
-2476
-2461
-2448
-2437
-2430
-2421
-2406
-2393
-2379
-2371
-2362
-2344
-2330
-2315
-2305
-2291
-2275
-2260
-2247
-2240
-2231
-2216
-2209
-2199
-2202
-2193
-2188
-2184
-2183
-2187
-2187
-2182
-2182
-2178
-2182
-2173
-2168
-2161
-2156
-2157
-2148
-2134
-2126
-2114
-2106
-2088
-2073
-2057
-2046
-2039
-2026
-2012
-2002
-1993
-1986
-1972
-1963
-1954
-1952
-1951
-1943
-1937
-1932
-1932
-1928
-1919
-1912
-1906
-1907
-1907
-1901
-1899
-1897
-1901
-1901
-1899
-1897
-1897
-1902
-1904
-1898
-1900
-1898
-1906
-1899
-1896
-1890
-1885
-1884
-1877
-1864
-1856
-1844
-1841
-1824
-1811
-1796
-1785
-1779
-1765
-1747
-1735
-1723
-1716
-1701
-1691
-1680
-1675
-1673
-1663
-1651
-1642
-1634
-1627
-1612
-1601
-1589
-1584
-1578
-1564
-1551
-1538
-1528
-1513
-1493
-1475
-1457
-1445
-1432
-1411
-1394
-1376
-1363
-1346
-1328
-1311
-1297
-1292
-1282
-1265
-1257
-1245
-1244
-1231
-1220
-1207
-1196
-1188
-1174
-1154
-1139
-1119
-1108
-1080
-1056
-1030
-1006
-985
-955
-922
-893
-863
-837
-803
-773
-743
-718
-697
-669
-642
-618
-598
-581
-556
-534
-513
-499
-484
-461
-439
-417
-400
-377
-351
-325
-300
-280
-257
-227
-199
-170
-145
-114
-82
-51
-23
-5
18
46
64
86
97
117
134
149
161
168
179
195
203
216
219
238
252
267
279
286
300
316
327
338
344
358
368
378
382
383
391
399
402
402
401
407
409
411
405
400
404
404
406
402
403
408
411
414
411
410
416
420
425
424
430
435
440
441
434
431
436
431
430
421
422
422
422
419
411
409
413
408
408
399
406
408
412
412
409
412
416
417
417
413
418
419
421
418
411
412
412
409
403
396
396
392
389
380
373
374
372
370
362
358
356
352
348
337
328
324
316
309
294
286
277
268
255
233
217
208
192
180
161
152
142
133
122
106
97
93
82
77
62
64
60
58
53
46
44
43
39
34
26
26
23
19
8
-5
-11
-18
-29
-42
-57
-65
-76
-87
-103
-118
-124
-132
-140
-154
-162
-166
-173
-179
-190
-197
-198
-201
-204
-215
-217
-221
-224
-230
-245
-255
-258
-267
-273
-285
-288
-294
-299
-307
-320
-326
-325
-333
-335
-345
-341
-342
-341
-345
-351
-350
-348
-347
-345
-347
-339
-337
-335
-340
-348
-349
-351
-356
-365
-373
-375
-380
-384
-394
-403
-403
-407
-410
-418
-420
-418
-415
-411
-412
-409
-400
-394
-385
-385
-374
-367
-359
-353
-355
-351
-342
-340
-335
-339
-334
-332
-329
-330
-339
-339
-333
-335
-332
-336
-327
-322
-316
-313
-312
-305
-296
-290
-283
-280
-268
-260
-252
-251
-252
-247
-243
-242
-244
-245
-239
-237
-235
-240
-244
-240
-240
-238
-239
-233
-221
-209
-196
-187
-174
-153
-136
-114
-102
-75
-50
-20
10
39
79
132
189
258
330
425
529
646
769
891
1026
1168
1300
1432
1553
1677
1787
1888
1977
2056
2134
2206
2269
2325
2371
2416
2449
2477
2494
2508
2530
2548
2562
2569
2573
2576
2569
2557
2533
2506
2480
2440
2385
2310
2221
2116
1989
1841
1668
1478
1276
1048
807
536
262
-34
-349
-684
-1043
-1412
-1789
-2186
-2595
-3030
-3471
-3929
-4394
-4867
-5343
-5803
-6242
-6668
-7066
-7445
-7790
-8117
-8427
-8727
-9016
-9287
-9545
-9794
-10031
-10260
-10473
-10682
-10881
-11073
-11248
-11394
-11517
-11614
-11688
-11730
-11738
-11719
-11669
-11596
-11497
-11364
-11211
-11032
-10834
-10610
-10358
-10084
-9789
-9478
-9142
-8781
-8413
-8028
-7643
-7238
-6829
-6415
-6002
-5593
-5183
-4773
-4374
-3978
-3598
-3212
-2839
-2474
-2123
-1788
-1456
-1133
-828
-535
-259
11
266
510
736
948
1156
1354
1537
1709
1869
2028
2175
2316
2444
2565
2691
2809
2921
3025
3128
3231
3328
3419
3498
3575
3654
3725
3791
3848
3901
3951
3995
4030
4052
4073
4097
4107
4118
4115
4121
4121
4119
4112
4098
4088
4082
4071
4063
4047
4047
4043
4042
4038
4030
4030
4033
4031
4031
4026
4028
4027
4025
4015
4001
3991
3980
3961
3938
3910
3886
3857
3825
3786
3745
3712
3676
3639
3598
3561
3528
3494
3460
3423
3390
3366
3341
3318
3293
3273
3255
3236
3216
3187
3163
3146
3120
3098
3064
3041
3015
2988
2959
2924
2894
2870
2842
2819
2788
2773
2754
2737
2718
2694
2678
2665
2650
2637
2622
2616
2609
2603
2591
2577
2570
2562
2549
2533
2516
2507
2493
2479
2458
2437
2424
2407
2389
2366
2349
2335
2321
2307
2288
2273
2265
2254
2245
2230
2221
2214
2207
2198
2181
2170
2168
2158
2151
2135
2129
2120
2111
2099
2083
2074
2070
2060
2055
2041
2043
2039
2037
2031
2022
2019
2018
2015
2012
2007
2010
2009
2008
2001
1992
1990
1986
1979
1971
1961
1959
1954
1949
1938
1928
1927
1923
1920
1912
1911
1914
1916
1919
1918
1920
1927
1932
1938
1936
1941
1946
1950
1952
1944
1942
1946
1943
1942
1933
1933
1931
1931
1928
1921
1921
1927
1927
1934
1930
1942
1950
1959
1965
1969
1980
1994
2005
2017
2026
2042
2055
2067
2072
2075
2085
2094
2099
2102
2104
2112
2117
2122
2121
2120
2127
2132
2138
2139
2147
2160
2171
2184
2193
2204
2222
2237
2254
2264
2284
2303
2322
2338
2346
2359
2378
2389
2402
2406
2419
2430
2440
2447
2447
2455
2469
2475
2485
2485
2499
2509
2520
2526
2531
2542
2555
2564
2573
2578
2591
2599
2607
2608
2607
2611
2614
2613
2609
2603
2604
2601
2598
2589
2582
2585
2584
2584
2580
2583
2591
2598
2606
2609
2614
2626
2634
2645
2646
2659
2669
2679
2687
2686
2689
2697
2698
2700
2694
2697
2696
2696
2691
2678
2673
2673
2663
2658
2643
2640
2631
2624
2613
2601
2594
2587
2578
2568
2553
2547
2536
2525
2507
2487
2474
2460
2443
2423
2405
2391
2375
2359
2335
2313
2300
2283
2268
2248
2233
2220
2205
2188
2165
2142
2125
2102
2082
2050
2030
2005
1982
1955
1920
1889
1863
1829
1796
1754
1723
1688
1653
1614
1568
1528
1493
1448
1406
1356
1315
1269
1223
1171
1116
1066
1014
957
898
833
776
713
650
580
507
442
374
303
228
153
83
9
-65
-147
-226
-296
-371
-445
-524
-599
-670
-742
-816
-894
-969
-1037
-1108
-1175
-1252
-1314
-1380
-1445
-1512
-1586
-1653
-1715
-1780
-1841
-1908
-1961
-2016
-2067
-2120
-2180
-2229
-2272
-2321
-2366
-2414
-2451
-2489
-2525
-2564
-2604
-2637
-2668
-2704
-2740
-2779
-2808
-2841
-2872
-2908
-2944
-2971
-2999
-3028
-3058
-3086
-3106
-3128
-3148
-3174
-3197
-3209
-3224
-3238
-3255
-3268
-3277
-3287
-3297
-3313
-3325
-3328
-3337
-3340
-3354
-3353
-3355
-3357
-3361
-3369
-3370
-3367
-3367
-3362
-3366
-3357
-3352
-3345
-3341
-3343
-3336
-3324
-3318
-3309
-3304
-3289
-3278
-3265
-3257
-3252
-3240
-3227
-3216
-3206
-3198
-3181
-3166
-3150
-3140
-3130
-3113
-3097
-3081
-3070
-3055
-3034
-3015
-2996
-2982
-2966
-2943
-2922
-2901
-2884
-2863
-2840
-2817
-2795
-2780
-2762
-2735
-2717
-2694
-2682
-2657
-2636
-2616
-2598
-2585
-2566
-2542
-2522
-2497
-2481
-2452
-2427
-2400
-2378
-2361
-2337
-2309
-2286
-2261
-2240
-2211
-2186
-2160
-2140
-2122
-2099
-2076
-2058
-2041
-2027
-2003
-1983
-1963
-1948
-1933
-1910
-1889
-1868
-1851
-1830
-1803
-1778
-1754
-1735
-1715
-1688
-1665
-1641
-1623
-1601
-1578
-1555
-1535
-1522
-1505
-1481
-1466
-1447
-1439
-1419
-1401
-1383
-1367
-1355
-1338
-1316
-1298
-1275
-1261
-1233
-1209
-1183
-1161
-1144
-1119
-1091
-1068
-1044
-1026
-1000
-980
-960
-948
-940
-926
-912
-904
-897
-894
-885
-881
-878
-882
-886
-882
-881
-880
-883
-880
-873
-866
-858
-855
-849
-837
-826
-814
-806
-793
-779
-764
-751
-746
-736
-719
-712
-701
-701
-690
-683
-676
-671
-670
-665
-654
-650
-641
-642
-628
-619
-608
-601
-597
-586
-571
-560
-548
-539
-523
-511
-498
-491
-488
-478
-468
-462
-458
-457
-448
-445
-443
-447
-452
-449
-448
-445
-448
-444
-436
-429
-422
-421
-417
-407
-399
-390
-385
-374
-362
-350
-341
-340
-334
-322
-319
-314
-318
-312
-309
-306
-306
-310
-309
-302
-302
-297
-302
-290
-284
-276
-271
-268
-258
-246
-237
-228
-223
-211
-202
-192
-188
-186
-177
-169
-165
-164
-165
-159
-158
-157
-164
-170
-167
-168
-168
-174
-174
-172
-173
-174
-181
-187
-188
-191
-194
-202
-202
-203
-204
-208
-221
-228
-229
-237
-242
-254
-256
-259
-261
-264
-273
-274
-268
-270
-267
-273
-264
-260
-256
-255
-257
-254
-250
-250
-250
-253
-247
-245
-243
-245
-250
-247
-243
-242
-243
-244
-238
-235
-232
-235
-237
-229
-225
-220
-220
-215
-207
-202
-197
-198
-197
-190
-187
-182
-186
-179
-175
-171
-170
-177
-179
-175
-178
-177
-183
-180
-178
-175
-175
-180
-177
-168
-166
-158
-159
-145
-134
-122
-113
-108
-98
-87
-79
-71
-68
-56
-49
-42
-41
-43
-37
-33
-33
-37
-40
-36
-34
-32
-35
-37
-30
-27
-22
-24
-19
-12
-6
0
2
6
18
26
36
37
48
57
65
70
68
70
78
79
82
78
83
84
86
83
73
71
75
70
72
66
74
78
83
84
83
89
95
98
102
102
112
117
123
122
120
124
126
125
120
115
116
113
110
100
91
92
88
86
80
77
79
80
81
77
77
83
85
90
85
93
97
101
103
98
97
100
97
96
88
88
84
82
75
61
56
57
49
46
37
40
38
37
33
25
24
24
20
16
10
13
11
10
3
-7
-10
-13
-19
-28
-35
-36
-40
-44
-55
-63
-63
-68
-73
-82
-87
-89
-91
-93
-101
-107
-105
-110
-110
-121
-120
-122
-125
-130
-141
-148
-149
-156
-161
-174
-177
-183
-187
-195
-209
-214
-214
-221
-225
-234
-233
-234
-236
-241
-250
-252
-253
-258
-264
-273
-272
-275
-279
-289
-301
-305
-310
-316
-325
-330
-329
-331
-333
-341
-347
-344
-344
-344
-348
-347
-342
-338
-335
-338
-338
-331
-332
-330
-340
-336
-336
-336
-339
-346
-349
-346
-349
-347
-354
-346
-343
-337
-334
-336
-331
-320
-317
-311
-311
-302
-297
-292
-293
-297
-294
-290
-291
-292
-298
-295
-297
-299
-307
-317
-319
-323
-328
-335
-338
-336
-335
-334
-339
-341
-336
-334
-331
-331
-326
-319
-312
-307
-308
-306
-296
-295
-289
-294
-286
-280
-274
-272
-274
-272
-266
-265
-259
-262
-249
-241
-229
-221
-216
-203
-186
-175
-163
-155
-139
-125
-111
-102
-95
-81
-67
-56
-47
-41
-28
-19
-10
-9
-7
3
12
21
25
34
48
61
74
80
90
107
123
140
154
173
195
217
238
253
273
302
324
353
373
408
445
488
537
590
658
741
830
937
1045
1178
1312
1453
1589
1719
1850
1977
2090
2191
2275
2354
2418
2471
2508
2534
2560
2578
2582
2576
2559
2544
2523
2500
2469
2436
2408
2370
2323
2262
2198
2129
2051
1965
1864
1750
1628
1488
1331
1152
962
756
536
297
35
-233
-505
-797
-1095
-1412
-1730
-2059
-2396
-2744
-3102
-3461
-3824
-4206
-4590
-4990
-5376
-5767
-6149
-6522
-6879
-7208
-7511
-7795
-8058
-8309
-8541
-8767
-8985
-9202
-9414
-9612
-9803
-9992
-10180
-10367
-10542
-10709
-10864
-11006
-11129
-11218
-11285
-11324
-11341
-11324
-11274
-11200
-11099
-10979
-10831
-10652
-10450
-10222
-9975
-9696
-9392
-9065
-8719
-8363
-7987
-7591
-7194
-6787
-6384
-5968
-5555
-5145
-4741
-4349
-3959
-3571
-3199
-2831
-2484
-2131
-1796
-1472
-1165
-875
-591
-319
-61
184
416
644
858
1062
1250
1427
1603
1769
1925
2071
2209
2350
2481
2608
2724
2836
2953
3063
3169
3265
3362
3457
3546
3628
3701
3770
3839
3899
3954
3996
4039
4075
4106
4129
4138
4149
4164
4166
4169
4162
4161
4155
4150
4140
4125
4118
4117
4109
4108
4097
4103
4104
4107
4105
4100
4101
4102
4099
4096
4089
4089
4083
4077
4062
4043
4030
4014
3994
3970
3944
3923
3898
3872
3838
3805
3780
3752
3726
3694
3668
3646
3625
3603
3577
3553
3535
3514
3495
3467
3449
3429
3410
3388
3357
3330
3308
3278
3250
3213
3184
3152
3121
3086
3046
3014
2989
2957
2929
2894
2872
2847
2825
2799
2773
2754
2738
2721
2707
2690
2684
2675
2667
2654
2638
2631
2623
2613
2599
2586
2579
2568
2556
2536
2516
2504
2487
2472
2452
2436
2425
2413
2400
2383
2367
2357
2342
2332
2313
2308
2301
2296
2289
2275
2267
2264
2255
2248
2234
2230
2223
2218
2209
2194
2187
2186
2176
2169
2154
2151
2144
2138
2128
2117
2114
2114
2111
2110
2105
2110
2110
2111
2106
2100
2103
2104
2103
2100
2097
2100
2099
2097
2088
2079
2079
2074
2070
2061
2057
2057
2056
2055
2049
2047
2052
2053
2058
2053
2061
2067
2073
2076
2074
2076
2082
2083
2086
2081
2087
2090
2095
2096
2090
2093
2101
2100
2102
2098
2103
2106
2110
2110
2110
2117
2126
2131
2136
2137
2146
2151
2156
2154
2150
2153
2155
2154
2149
2146
2147
2144
2142
2133
2126
2128
2126
2125
2120
2120
2124
2128
2132
2132
2135
2146
2151
2161
2161
2175
2185
2195
2203
2204
2210
2219
2223
2229
2226
2236
2240
2247
2250
2245
2249
2258
2259
2263
2262
2271
2278
2286
2290
2293
2302
2313
2321
2328
2332
2345
2353
2362
2364
2365
2373
2379
2383
2382
2384
2390
2392
2394
2389
2386
2391
2395
2399
2399
2403
2410
2415
2420
2419
2421
2431
2433
2440
2435
2443
2447
2451
2450
2443
2440
2440
2435
2433
2421
2424
2421
2420
2414
2402
2396
2394
2386
2379
2367
2364
2358
2353
2342
2328
2320
2313
2301
2288
2272
2265
2254
2244
2227
2210
2201
2189
2176
2158
2143
2133
2119
2105
2083
2064
2051
2034
2017
1994
1974
1954
1931
1905
1871
1840
1816
1781
1750
1707
1675
1638
1600
1558
1509
1465
1424
1377
1334
1282
1245
1201
1159
1112
1059
1014
970
922
874
821
775
725
673
615
553
496
439
378
315
249
192
132
72
5
-61
-120
-182
-244
-311
-372
-429
-487
-544
-607
-667
-721
-777
-833
-893
-950
-1006
-1062
-1120
-1185
-1246
-1298
-1360
-1417
-1484
-1540
-1597
-1654
-1713
-1775
-1830
-1879
-1931
-1977
-2031
-2067
-2107
-2145
-2185
-2227
-2261
-2290
-2322
-2352
-2384
-2408
-2434
-2459
-2490
-2524
-2551
-2577
-2608
-2639
-2671
-2694
-2721
-2747
-2778
-2809
-2829
-2852
-2873
-2898
-2915
-2928
-2940
-2951
-2965
-2977
-2981
-2986
-2989
-2997
-2998
-2998
-2997
-2997
-3005
-3007
-3001
-3004
-3003
-3012
-3011
-3011
-3010
-3012
-3017
-3017
-3010
-3009
-3004
-3008
-2995
-2988
-2978
-2971
-2967
-2954
-2937
-2923
-2908
-2896
-2875
-2858
-2841
-2829
-2819
-2802
-2785
-2771
-2758
-2745
-2726
-2711
-2696
-2689
-2682
-2667
-2655
-2643
-2635
-2622
-2605
-2589
-2572
-2560
-2545
-2523
-2504
-2483
-2469
-2447
-2424
-2400
-2378
-2365
-2346
-2320
-2303
-2283
-2273
-2253
-2235
-2217
-2202
-2192
-2176
-2154
-2141
-2122
-2115
-2092
-2075
-2056
-2041
-2028
-2008
-1987
-1968
-1949
-1934
-1912
-1894
-1876
-1864
-1856
-1839
-1822
-1808
-1796
-1785
-1767
-1753
-1738
-1731
-1723
-1706
-1693
-1678
-1668
-1653
-1634
-1616
-1599
-1588
-1575
-1556
-1540
-1523
-1514
-1495
-1477
-1458
-1442
-1434
-1421
-1401
-1389
-1373
-1365
-1347
-1331
-1313
-1299
-1290
-1274
-1251
-1237
-1217
-1207
-1183
-1163
-1142
-1126
-1113
-1093
-1073
-1057
-1041
-1030
-1010
-996
-983
-976
-972
-961
-952
-946
-943
-941
-933
-927
-923
-925
-926
-917
-913
-908
-907
-902
-892
-884
-878
-876
-873
-863
-856
-847
-846
-833
-823
-812
-802
-798
-785
-765
-747
-723
-700
-663
-622
-572
-515
-452
-365
-258
-149
-25
99
245
392
544
692
836
981
1119
1243
1356
1452
1546
1624
1691
1738
1771
1800
1815
1816
1802
1778
1753
1716
1671
1609
1540
1469
1382
1278
1146
992
813
606
371
107
-181
-485
-816
-1159
-1528
-1898
-2285
-2684
-3097
-3530
-3968
-4408
-4859
-5309
-5769
-6223
-6684
-7146
-7612
-8082
-8541
-8989
-9441
-9882
-10322
-10738
-11141
-11515
-11856
-12159
-12414
-12631
-12812
-12957
-13074
-13159
-13235
-13305
-13382
-13468
-13554
-13652
-13761
-13881
-14001
-14109
-14207
-14284
-14340
-14360
-14334
-14271
-14164
-14016
-13819
-13575
-13291
-12971
-12622
-12239
-11821
-11385
-10923
-10452
-9950
-9440
-8921
-8400
-7882
-7359
-6834
-6318
-5806
-5311
-4816
-4335
-3865
-3411
-2975
-2543
-2118
-1714
-1319
-943
-570
-215
127
449
754
1052
1335
1603
1858
2098
2335
2556
2765
2957
3138
3316
3483
3638
3783
3922
4059
4188
4310
4421
4527
4636
4734
4826
4909
4989
5066
5134
5195
5244
5290
5336
5369
5399
5412
5433
5446
5455
5458
5453
5451
5452
5447
5445
5434
5437
5436
5437
5435
5428
5429
5437
5438
5443
5444
5454
5460
5466
5465
5460
5459
5457
5448
5436
5419
5408
5389
5367
5336
5301
5272
5239
5204
5164
5127
5095
5062
5028
4990
4954
4928
4899
4872
4842
4816
4795
4774
4754
4727
4704
4689
4665
4645
4612
4591
4564
4536
4504
4465
4430
4397
4358
4323
4277
4244
4206
4170
4132
4089
4055
4026
3993
3962
3928
3902
3875
3848
3816
3782
3756
3732
3703
3673
3639
3613
3582
3549
3508
3464
3425
3383
3339
3290
3244
3202
3158
3113
3062
3014
2974
2934
2896
2858
2826
2800
2776
2754
2727
2708
2699
2682
2671
2650
2643
2634
2625
2613
2595
2582
2573
2556
2541
2516
2504
2485
2468
2446
2419
2400
2384
2363
2344
2322
2308
2292
2276
2256
2234
2222
2210
2195
2180
2163
2154
2141
2128
2109
2090
2078
2064
2049
2030
2014
2001
1986
1970
1948
1927
1912
1895
1880
1861
1847
1836
1827
1817
1800
1790
1789
1779
1775
1761
1761
1759
1758
1754
1747
1744
1746
1740
1739
1728
1732
1730
1731
1729
1722
1723
1726
1724
1722
1717
1719
1719
1719
1714
1707
1709
1710
1709
1706
1703
1707
1708
1708
1703
1698
1703
1705
1709
1707
1711
1719
1726
1732
1732
1734
1744
1751
1759
1763
1772
1782
1792
1798
1796
1799
1809
1811
1817
1815
1823
1830
1838
1843
1844
1850
1861
1865
1874
1874
1890
1902
1915
1925
1932
1945
1960
1971
1981
1987
2002
2012
2022
2026
2027
2034
2040
2042
2043
2041
2047
2050
2053
2049
2046
2052
2055
2058
2056
2060
2066
2071
2075
2075
2076
2084
2089
2096
2096
2103
2109
2114
2116
2108
2104
2107
2101
2099
2087
2084
2079
2073
2064
2049
2041
2040
2031
2027
2016
2021
2020
2022
2021
2017
2020
2024
2025
2027
2027
2036
2042
2048
2048
2046
2050
2052
2050
2044
2038
2039
2036
2034
2025
2017
2018
2015
2014
2006
2005
2007
2007
2008
2005
2004
2008
2009
2011
2004
2005
2004
2002
1995
1979
1969
1963
1950
1938
1916
1901
1881
1862
1838
1807
1782
1763
1734
1710
1674
1651
1622
1592
1556
1515
1477
1439
1396
1352
1304
1264
1218
1172
1118
1061
1011
958
902
842
782
728
672
615
551
487
431
371
312
248
189
133
76
20
-41
-99
-151
-207
-262
-326
-380
-437
-493
-551
-616
-674
-726
-783
-836
-895
-945
-995
-1043
-1093
-1147
-1192
-1229
-1274
-1313
-1360
-1394
-1433
-1471
-1513
-1558
-1596
-1634
-1674
-1714
-1757
-1790
-1828
-1866
-1910
-1955
-1992
-2029
-2068
-2107
-2145
-2175
-2206
-2236
-2273
-2307
-2331
-2359
-2384
-2413
-2436
-2454
-2473
-2492
-2514
-2534
-2547
-2565
-2579
-2603
-2615
-2631
-2646
-2662
-2685
-2702
-2713
-2729
-2741
-2760
-2768
-2777
-2784
-2793
-2807
-2812
-2810
-2814
-2814
-2820
-2815
-2814
-2811
-2812
-2815
-2812
-2809
-2808
-2808
-2811
-2805
-2804
-2804
-2810
-2818
-2818
-2818
-2819
-2823
-2823
-2817
-2812
-2806
-2806
-2803
-2791
-2781
-2770
-2763
-2751
-2734
-2718
-2703
-2694
-2683
-2666
-2656
-2642
-2639
-2624
-2613
-2601
-2593
-2590
-2581
-2567
-2558
-2546
-2542
-2526
-2515
-2501
-2489
-2484
-2469
-2448
-2434
-2416
-2403
-2380
-2360
-2339
-2322
-2307
-2285
-2262
-2242
-2223
-2207
-2182
-2163
-2145
-2134
-2124
-2107
-2091
-2076
-2064
-2049
-2028
-2011
-1993
-1981
-1967
-1946
-1927
-1907
-1889
-1867
-1841
-1816
-1790
-1771
-1747
-1717
-1693
-1663
-1645
-1614
-1586
-1557
-1531
-1511
-1487
-1459
-1436
-1411
-1394
-1365
-1341
-1314
-1292
-1277
-1254
-1227
-1209
-1189
-1176
-1155
-1137
-1119
-1106
-1095
-1077
-1059
-1046
-1034
-1025
-1010
-998
-986
-980
-975
-960
-947
-935
-928
-917
-902
-891
-879
-875
-869
-855
-845
-834
-828
-819
-809
-800
-793
-794
-790
-780
-777
-770
-773
-764
-758
-753
-751
-753
-751
-744
-741
-735
-739
-727
-720
-711
-705
-705
-698
-688
-683
-676
-674
-663
-654
-645
-640
-638
-629
-619
-614
-610
-608
-599
-594
-589
-590
-590
-581
-574
-567
-564
-557
-545
-535
-525
-521
-515
-501
-489
-477
-469
-459
-446
-435
-426
-424
-419
-406
-403
-396
-401
-394
-391
-389
-390
-398
-401
-399
-403
-401
-408
-398
-392
-385
-381
-381
-373
-362
-354
-345
-340
-326
-315
-303
-296
-293
-283
-273
-268
-264
-263
-254
-248
-241
-241
-241
-233
-228
-223
-224
-221
-214
-209
-205
-206
-206
-200
-196
-191
-192
-188
-183
-180
-179
-186
-188
-183
-187
-186
-195
-193
-194
-194
-197
-204
-205
-199
-200
-195
-199
-187
-181
-174
-171
-171
-165
-157
-153
-148
-147
-138
-132
-127
-129
-134
-134
-134
-138
-145
-153
-152
-155
-158
-168
-177
-178
-182
-185
-193
-196
-194
-192
-190
-191
-190
-183
-176
-169
-169
-163
-157
-151
-149
-156
-156
-149
-151
-150
-159
-158
-158
-158
-161
-169
-170
-166
-169
-167
-174
-164
-160
-155
-152
-153
-146
-138
-133
-128
-126
-117
-111
-105
-106
-110
-106
-103
-104
-107
-110
-107
-106
-105
-112
-118
-115
-117
-119
-126
-128
-125
-123
-121
-122
-122
-116
-113
-110
-114
-110
-108
-105
-105
-114
-116
-113
-118
-120
-131
-134
-141
-147
-156
-170
-178
-178
-187
-190
-204
-202
-205
-205
-209
-215
-215
-212
-212
-211
-214
-208
-205
-202
-205
-211
-210
-209
-211
-216
-221
-219
-221
-223
-232
-241
-241
-244
-246
-253
-254
-252
-251
-251
-254
-256
-250
-249
-244
-246
-237
-229
-221
-215
-217
-213
-204
-202
-198
-202
-197
-194
-189
-188
-193
-190
-181
-181
-176
-181
-171
-165
-157
-153
-149
-139
-128
-120
-111
-106
-94
-87
-81
-81
-84
-80
-78
-79
-85
-91
-93
-99
-106
-120
-134
-139
-147
-153
-163
-167
-167
-168
-170
-177
-180
-177
-176
-172
-177
-168
-162
-154
-149
-151
-149
-142
-142
-140
-146
-145
-146
-147
-153
-167
-173
-174
-184
-190
-203
-205
-210
-213
-220
-228
-230
-230
-233
-236
-241
-237
-237
-236
-242
-248
-247
-247
-249
-256
-262
-262
-265
-268
-278
-286
-286
-290
-292
-298
-298
-295
-293
-291
-292
-290
-279
-273
-263
-262
-248
-237
-226
-219
-219
-214
-204
-200
-194
-196
-186
-180
-173
-171
-176
-174
-166
-167
-166
-170
-165
-162
-159
-160
-164
-161
-157
-156
-155
-158
-150
-146
-141
-141
-142
-134
-127
-122
-119
-115
-105
-98
-90
-88
-84
-72
-64
-55
-50
-42
-32
-24
-17
-16
-13
-3
0
8
4
12
16
19
21
16
17
23
25
30
28
39
46
55
61
59
66
78
82
89
92
103
112
122
126
127
135
142
144
146
144
152
155
158
155
151
155
157
158
156
157
165
171
179
181
187
201
212
223
229
239
251
262
271
273
278
290
294
301
297
306
310
314
314
310
310
315
316
321
317
328
334
343
349
348
356
368
373
381
384
395
403
411
414
414
420
427
428
429
427
434
436
438
433
426
426
423
417
407
399
396
390
384
370
358
354
347
340
329
324
322
320
317
308
305
311
308
310
301
305
304
305
302
296
296
301
300
304
298
305
308
312
311
306
308
312
312
313
309
311
310
308
299
287
282
278
270
261
251
249
242
236
225
212
207
200
192
180
172
167
161
154
141
131
126
118
110
96
86
79
72
64
48
36
31
17
7
-13
-21
-30
-39
-48
-61
-68
-68
-74
-75
-87
-84
-86
-86
-90
-97
-97
-95
-97
-98
-103
-101
-102
-103
-110
-118
-119
-119
-123
-127
-132
-129
-129
-128
-134
-139
-135
-133
-131
-132
-127
-118
-111
-105
-105
-104
-96
-91
-86
-86
-82
-77
-74
-73
-82
-87
-86
-96
-102
-119
-126
-135
-145
-158
-176
-188
-196
-212
-222
-242
-246
-254
-259
-266
-276
-277
-277
-280
-282
-289
-287
-289
-292
-300
-312
-316
-322
-331
-343
-356
-363
-372
-383
-400
-416
-425
-436
-446
-460
-468
-472
-477
-481
-487
-491
-488
-485
-479
-478
-468
-458
-447
-439
-438
-432
-418
-411
-400
-397
-384
-372
-359
-348
-341
-328
-306
-291
-269
-254
-219
-185
-141
-92
-35
40
129
228
340
459
595
733
874
1010
1140
1271
1392
1498
1587
1661
1727
1775
1810
1824
1829
1833
1825
1806
1771
1733
1690
1641
1589
1527
1461
1395
1317
1232
1131
1030
920
804
677
532
381
221
40
-152
-367
-587
-821
-1067
-1327
-1603
-1880
-2159
-2454
-2748
-3055
-3352
-3657
-3963
-4275
-4590
-4902
-5218
-5544
-5875
-6211
-6540
-6871
-7194
-7508
-7805
-8070
-8310
-8530
-8732
-8919
-9089
-9253
-9412
-9569
-9719
-9854
-9987
-10114
-10245
-10373
-10497
-10617
-10727
-10828
-10910
-10965
-11003
-11015
-11009
-10966
-10897
-10802
-10685
-10551
-10387
-10193
-9981
-9743
-9488
-9200
-8891
-8559
-8209
-7848
-7464
-7064
-6666
-6259
-5859
-5447
-5041
-4640
-4250
-3870
-3493
-3124
-2770
-2425
-2095
-1767
-1453
-1151
-865
-593
-324
-68
174
403
623
839
1043
1238
1418
1591
1766
1931
2089
2236
2382
2524
2660
2790
2911
3029
3149
3259
3367
3460
3559
3649
3734
3812
3876
3940
4004
4056
4105
4141
4180
4212
4239
4256
4263
4273
4286
4288
4291
4286
4290
4290
4288
4282
4274
4271
4270
4266
4263
4256
4260
4259
4258
4251
4242
4240
4236
4228
4215
4201
4192
4179
4163
4138
4113
4095
4070
4044
4010
3981
3955
3927
3899
3865
3835
3813
3785
3763
3730
3711
3690
3670
3649
3624
3605
3593
3575
3561
3538
3527
3511
3496
3476
3449
3430
3414
3390
3368
3339
3318
3293
3268
3237
3204
3178
3153
3127
3102
3076
3059
3040
3022
2999
2976
2963
2948
2933
2916
2901
2892
2880
2869
2849
2831
2819
2803
2787
2765
2747
2731
2714
2694
2669
2646
2630
2606
2586
2555
2537
2516
2497
2476
2451
2432
2419
2401
2387
2365
2357
2346
2338
2325
2307
2297
2292
2280
2271
2256
2250
2239
2229
2213
2194
2181
2169
2154
2139
2121
2112
2098
2085
2067
2049
2040
2032
2024
2014
2010
2012
2013
2015
2010
2009
2015
2018
2021
2020
2022
2027
2031
2033
2028
2025
2030
2026
2026
2014
2015
2013
2011
2007
1999
1996
1999
1998
2001
1996
2007
2014
2025
2034
2040
2055
2076
2091
2109
2122
2143
2161
2179
2191
2200
2215
2229
2238
2245
2247
2258
2263
2267
2264
2259
2263
2266
2268
2268
2272
2282
2290
2299
2301
2307
2321
2334
2347
2357
2372
2389
2405
2419
2424
2434
2450
2456
2467
2466
2477
2484
2491
2495
2493
2496
2504
2505
2511
2507
2519
2527
2537
2544
2548
2560
2574
2584
2594
2600
2613
2623
2633
2638
2640
2649
2657
2661
2662
2659
2663
2663
2662
2655
2648
2651
2650
2649
2643
2643
2646
2647
2650
2646
2645
2650
2654
2659
2659
2663
2668
2672
2672
2662
2656
2656
2645
2638
2619
2610
2597
2583
2564
2539
2520
2505
2484
2468
2441
2430
2415
2402
2386
2366
2354
2344
2329
2315
2296
2286
2274
2262
2246
2227
2216
2206
2193
2178
2162
2154
2144
2135
2119
2104
2099
2090
2080
2064
2052
2043
2031
2019
2001
1985
1975
1963
1951
1933
1920
1908
1894
1878
1854
1835
1825
1807
1793
1771
1758
1744
1729
1711
1688
1670
1657
1636
1619
1591
1576
1553
1530
1500
1464
1432
1400
1363
1325
1280
1243
1201
1158
1109
1056
1009
960
907
851
793
743
688
633
571
510
457
399
341
277
218
161
101
40
-27
-94
-157
-224
-292
-367
-435
-504
-573
-645
-724
-796
-859
-929
-993
-1064
-1125
-1186
-1245
-1304
-1367
-1422
-1469
-1523
-1570
-1627
-1668
-1715
-1761
-1811
-1864
-1910
-1956
-2005
-2053
-2104
-2147
-2193
-2239
-2290
-2342
-2387
-2431
-2476
-2522
-2565
-2600
-2635
-2669
-2709
-2745
-2771
-2799
-2824
-2853
-2875
-2893
-2912
-2930
-2951
-2970
-2983
-2998
-3011
-3031
-3042
-3053
-3064
-3077
-3098
-3113
-3122
-3138
-3151
-3171
-3181
-3193
-3202
-3211
-3226
-3231
-3228
-3232
-3229
-3235
-3225
-3219
-3212
-3209
-3208
-3202
-3194
-3189
-3184
-3183
-3174
-3170
-3166
-3168
-3172
-3168
-3164
-3163
-3163
-3160
-3149
-3139
-3128
-3122
-3113
-3094
-3078
-3060
-3045
-3023
-2996
-2968
-2941
-2916
-2890
-2857
-2828
-2796
-2774
-2740
-2708
-2676
-2647
-2626
-2600
-2569
-2544
-2517
-2497
-2469
-2443
-2417
-2393
-2374
-2347
-2313
-2288
-2258
-2238
-2204
-2174
-2144
-2118
-2093
-2062
-2029
-2000
-1972
-1948
-1916
-1889
-1863
-1844
-1828
-1804
-1782
-1763
-1748
-1732
-1711
-1694
-1678
-1670
-1662
-1647
-1636
-1625
-1618
-1607
-1592
-1579
-1567
-1560
-1552
-1538
-1530
-1519
-1519
-1505
-1495
-1485
-1478
-1478
-1472
-1462
-1457
-1450
-1450
-1439
-1430
-1419
-1410
-1407
-1394
-1374
-1360
-1342
-1330
-1305
-1284
-1260
-1239
-1220
-1195
-1169
-1148
-1128
-1112
-1087
-1068
-1048
-1035
-1023
-1003
-984
-967
-953
-939
-919
-902
-886
-877
-867
-849
-834
-820
-810
-796
-779
-764
-752
-745
-737
-723
-715
-703
-702
-688
-677
-665
-657
-655
-649
-638
-633
-625
-624
-611
-600
-586
-575
-571
-558
-541
-531
-518
-512
-495
-483
-470
-462
-458
-448
-438
-434
-431
-434
-428
-427
-426
-432
-439
-438
-438
-440
-445
-446
-443
-442
-440
-443
-443
-434
-428
-421
-419
-413
-403
-395
-388
-389
-386
-376
-374
-367
-372
-364
-360
-357
-357
-363
-366
-364
-367
-366
-373
-366
-363
-360
-360
-368
-368
-364
-367
-368
-375
-373
-374
-375
-381
-390
-392
-395
-404
-414
-428
-435
-446
-457
-476
-494
-506
-520
-536
-557
-574
-586
-600
-613
-631
-645
-650
-656
-661
-668
-670
-669
-668
-666
-670
-668
-658
-655
-647
-650
-639
-633
-627
-623
-624
-621
-613
-611
-605
-608
-595
-588
-579
-575
-576
-568
-556
-549
-540
-534
-520
-508
-496
-489
-484
-473
-462
-455
-450
-447
-436
-429
-421
-419
-418
-410
-405
-401
-401
-397
-389
-382
-376
-376
-374
-366
-360
-354
-354
-350
-345
-340
-337
-342
-341
-333
-333
-329
-335
-330
-327
-325
-325
-330
-330
-323
-321
-314
-316
-303
-294
-284
-277
-275
-266
-254
-245
-236
-230
-218
-209
-201
-198
-200
-194
-189
-187
-186
-187
-179
-174
-170
-171
-173
-167
-163
-159
-160
-155
-146
-138
-130
-128
-124
-113
-103
-93
-88
-79
-67
-56
-47
-46
-38
-24
-19
-10
-12
-2
4
11
14
13
18
28
32
42
42
59
71
85
96
105
121
140
156
173
188
209
227
244
255
262
275
288
297
304
309
320
328
334
334
333
341
346
351
351
356
366
375
383
386
390
397
402
407
405
410
414
418
419
411
408
411
404
399
383
376
365
354
341
322
311
306
293
287
271
273
269
269
266
261
265
271
274
279
281
291
297
303
302
299
303
305
304
301
295
297
293
289
276
263
259
250
243
231
224
221
218
214
206
201
201
200
202
198
203
207
212
215
209
209
215
213
213
206
207
206
206
202
193
190
192
186
185
174
178
177
179
177
174
178
185
189
194
195
205
211
217
218
218
225
232
236
237
237
243
245
244
237
229
230
227
223
214
209
207
204
199
190
182
180
175
173
163
163
161
158
152
137
126
121
109
99
81
71
60
49
35
15
2
-6
-22
-34
-53
-59
-68
-75
-85
-97
-103
-108
-115
-122
-132
-133
-138
-140
-147
-155
-155
-154
-155
-159
-162
-158
-157
-157
-164
-168
-164
-163
-161
-165
-164
-159
-156
-154
-155
-155
-148
-146
-141
-146
-140
-138
-136
-138
-147
-151
-151
-156
-158
-168
-166
-167
-166
-169
-177
-177
-171
-171
-167
-170
-160
-153
-145
-142
-141
-134
-127
-124
-121
-121
-113
-110
-106
-109
-114
-112
-112
-116
-124
-131
-133
-136
-139
-148
-155
-152
-154
-154
-158
-157
-152
-148
-144
-144
-141
-131
-125
-116
-118
-107
-100
-94
-92
-98
-99
-95
-97
-97
-104
-101
-101
-100
-104
-114
-115
-111
-114
-113
-117
-111
-109
-106
-107
-110
-107
-104
-104
-105
-108
-103
-103
-103
-109
-117
-118
-122
-128
-137
-144
-146
-150
-154
-163
-171
-170
-172
-173
-179
-180
-177
-175
-174
-177
-178
-171
-171
-166
-172
-166
-163
-160
-160
-165
-165
-160
-159
-155
-158
-148
-141
-133
-129
-131
-125
-112
-107
-98
-94
-81
-72
-62
-58
-56
-48
-40
-36
-33
-33
-24
-21
-19
-24
-32
-32
-35
-39
-48
-55
-56
-58
-61
-71
-79
-80
-85
-89
-98
-104
-107
-110
-114
-124
-130
-128
-134
-134
-146
-144
-145
-145
-147
-153
-153
-148
-147
-142
-146
-135
-128
-119
-113
-113
-105
-92
-85
-77
-73
-62
-54
-47
-46
-48
-43
-37
-35
-33
-34
-27
-25
-23
-29
-35
-33
-33
-32
-35
-32
-24
-18
-11
-10
-8
3
11
20
24
33
43
53
62
63
67
78
80
85
78
83
85
86
85
80
80
85
84
88
82
92
98
105
110
109
117
129
135
142
144
153
158
162
160
154
154
154
149
141
130
126
117
107
90
72
62
50
39
23
13
8
2
-5
-17
-28
-32
-38
-43
-51
-54
-55
-57
-61
-73
-80
-80
-89
-95
-110
-115
-122
-128
-137
-149
-155
-155
-161
-160
-168
-159
-154
-147
-143
-141
-132
-120
-112
-103
-98
-86
-77
-68
-65
-66
-59
-52
-48
-46
-47
-41
-40
-39
-44
-48
-42
-36
-29
-25
-16
-2
11
24
34
48
69
90
113
133
160
192
228
268
308
363
437
512
605
700
818
943
1075
1207
1335
1466
1597
1715
1828
1920
2016
2095
2165
2220
2262
2302
2338
2361
2374
2374
2373
2364
2352
2331
2305
2283
2255
2215
2165
2103
2040
1964
1881
1787
1685
1579
1456
1317
1157
987
803
604
390
155
-92
-347
-615
-891
-1181
-1473
-1774
-2083
-2402
-2735
-3067
-3401
-3754
-4114
-4489
-4859
-5234
-5605
-5970
-6326
-6660
-6967
-7262
-7532
-7798
-8039
-8279
-8514
-8749
-8983
-9206
-9423
-9637
-9847
-10057
-10255
-10448
-10627
-10793
-10942
-11060
-11154
-11224
-11267
-11280
-11257
-11207
-11131
-11036
-10915
-10761
-10587
-10389
-10173
-9926
-9651
-9353
-9032
-8696
-8341
-7967
-7585
-7195
-6807
-6407
-6005
-5605
-5211
-4830
-4450
-4070
-3705
-3346
-3002
-2659
-2328
-2008
-1701
-1411
-1126
-846
-587
-334
-102
133
351
561
755
937
1117
1288
1448
1601
1744
1889
2025
2156
2276
2389
2505
2616
2721
2820
2914
3011
3102
3188
3263
3333
3407
3469
3527
3573
3618
3661
3697
3727
3749
3768
3788
3801
3813
3815
3825
3832
3839
3842
3837
3839
3848
3851
3859
3861
3873
3882
3893
3901
3902
3910
3923
3926
3932
3928
3934
3933
3930
3922
3908
3898
3887
3872
3855
3833
3820
3802
3783
3757
3729
3708
3686
3662
3637
3613
3598
3581
3565
3543
3524
3513
3498
3482
3461
3442
3425
3406
3384
3356
3329
3305
3275
3246
3205
3176
3143
3109
3073
3031
2995
2966
2931
2901
2866
2843
2819
2799
2777
2751
2736
2729
2716
2708
2692
2689
2683
2678
2668
2657
2651
2645
2637
2628
2616
2611
2602
2594
2578
2561
2551
2540
2528
2513
2500
2495
2487
2480
2467
2455
2452
2445
2440
2431
2427
2427
2428
2427
2421
2417
2420
2416
2415
2402
2402
2399
2396
2391
2379
2372
2369
2361
2355
2341
2338
2333
2330
2325
2313
2311
2315
2312
2312
2306
2312
2314
2317
2315
2311
2314
2317
2316
2315
2311
2314
2313
2310
2300
2289
2286
2281
2275
2266
2259
2258
2255
2251
2242
2237
2240
2239
2240
2238
2241
2248
2255
2260
2259
2261
2270
2270
2275
2268
2274
2275
2276
2273
2264
2260
2259
2252
2248
2236
2236
2231
2230
2224
2212
2208
2210
2206
2206
2201
2206
2210
2214
2215
2216
2224
2232
2237
2240
2239
2247
2250
2252
2247
2240
2240
2240
2238
2232
2229
2230
2229
2228
2220
2215
2217
2218
2220
2217
2219
2223
2227
2229
2224
2223
2230
2230
2235
2230
2236
2239
2241
2240
2232
2229
2230
2226
2225
2216
2222
2224
2228
2230
2226
2230
2239
2242
2248
2250
2260
2267
2275
2278
2279
2287
2295
2298
2300
2299
2305
2308
2311
2307
2302
2306
2306
2305
2300
2297
2299
2298
2296
2288
2281
2281
2279
2276
2270
2267
2267
2267
2265
2256
2252
2256
2251
2252
2244
2247
2248
2249
2246
2239
2237
2240
2237
2238
2229
2236
2237
2240
2238
2231
2231
2232
2228
2224
2216
2215
2211
2207
2197
2184
2178
2172
2161
2149
2135
2129
2119
2111
2096
2081
2075
2066
2055
2040
2028
2020
2009
1997
1977
1959
1945
1928
1909
1883
1859
1835
1808
1776
1734
1697
1665
1623
1583
1533
1492
1447
1400
1349
1293
1241
1193
1137
1085
1023
976
923
871
814
752
697
643
586
528
468
416
361
305
243
177
117
56
-9
-75
-144
-204
-268
-331
-400
-468
-527
-589
-650
-714
-773
-826
-879
-931
-987
-1041
-1089
-1137
-1185
-1239
-1286
-1334
-1381
-1431
-1489
-1543
-1589
-1644
-1694
-1754
-1803
-1854
-1903
-1953
-2008
-2055
-2094
-2139
-2177
-2224
-2254
-2288
-2321
-2357
-2395
-2424
-2451
-2480
-2507
-2536
-2556
-2580
-2603
-2632
-2663
-2687
-2712
-2740
-2770
-2798
-2819
-2841
-2862
-2889
-2915
-2931
-2948
-2964
-2983
-2995
-3002
-3009
-3015
-3024
-3030
-3030
-3031
-3030
-3036
-3033
-3029
-3024
-3022
-3027
-3026
-3019
-3020
-3019
-3026
-3024
-3023
-3021
-3022
-3027
-3024
-3015
-3014
-3007
-3009
-2996
-2987
-2977
-2970
-2964
-2951
-2936
-2922
-2907
-2896
-2875
-2857
-2838
-2825
-2814
-2795
-2776
-2759
-2744
-2729
-2708
-2689
-2670
-2659
-2647
-2627
-2610
-2593
-2581
-2563
-2542
-2522
-2504
-2490
-2475
-2455
-2440
-2423
-2414
-2396
-2380
-2363
-2348
-2341
-2329
-2310
-2299
-2285
-2279
-2263
-2249
-2233
-2221
-2213
-2197
-2175
-2162
-2143
-2134
-2111
-2092
-2073
-2057
-2043
-2021
-1998
-1978
-1957
-1942
-1918
-1898
-1879
-1865
-1854
-1835
-1817
-1801
-1788
-1774
-1753
-1734
-1715
-1703
-1689
-1666
-1646
-1624
-1608
-1586
-1560
-1537
-1514
-1497
-1478
-1455
-1436
-1415
-1403
-1380
-1361
-1340
-1324
-1315
-1302
-1285
-1275
-1264
-1261
-1248
-1238
-1227
-1219
-1218
-1208
-1193
-1186
-1175
-1172
-1156
-1144
-1130
-1120
-1111
-1096
-1080
-1068
-1056
-1049
-1034
-1023
-1012
-1008
-1006
-996
-988
-983
-981
-979
-972
-968
-964
-968
-969
-960
-955
-947
-944
-936
-923
-912
-900
-893
-883
-866
-853
-837
-831
-812
-798
-784
-774
-771
-764
-753
-749
-744
-746
-737
-732
-725
-722
-725
-720
-709
-706
-699
-699
-687
-678
-667
-659
-653
-641
-628
-620
-611
-607
-593
-585
-577
-575
-575
-567
-561
-560
-562
-564
-562
-563
-564
-571
-577
-574
-574
-574
-580
-582
-581
-582
-583
-590
-594
-590
-593
-593
-604
-604
-609
-615
-624
-640
-652
-660
-672
-681
-699
-704
-713
-720
-730
-747
-755
-756
-764
-767
-775
-771
-768
-764
-763
-763
-756
-748
-743
-737
-734
-722
-714
-704
-700
-698
-687
-677
-668
-663
-656
-643
-632
-620
-615
-606
-590
-576
-563
-554
-543
-527
-513
-500
-492
-481
-462
-450
-433
-427
-407
-391
-375
-360
-349
-334
-314
-299
-279
-268
-244
-225
-205
-189
-180
-164
-143
-130
-114
-103
-84
-69
-55
-45
-40
-28
-18
-12
-7
-5
6
12
19
19
18
25
30
34
33
36
44
50
57
58
61
71
78
85
87
92
99
104
108
105
104
111
108
109
97
97
93
88
81
70
64
63
57
57
48
55
57
63
66
64
70
81
87
95
100
112
122
132
136
137
146
155
159
162
162
170
174
178
176
173
177
180
183
182
186
195
202
210
212
218
230
241
251
257
267
278
289
297
296
299
309
309
312
305
309
309
308
304
295
291
292
288
289
280
287
289
294
294
291
295
302
304
307
306
312
316
321
319
314
316
317
316
313
308
311
310
308
301
294
295
294
293
288
288
292
294
297
294
294
301
306
312
314
321
328
336
340
337
339
347
345
347
339
341
341
339
335
325
320
320
313
310
296
298
293
288
279
266
260
256
248
241
230
226
219
213
201
186
177
168
156
142
126
118
105
93
74
56
47
35
23
6
-5
-13
-21
-31
-46
-59
-65
-74
-81
-95
-102
-109
-116
-127
-145
-158
-162
-175
-183
-199
-205
-212
-219
-228
-241
-247
-246
-253
-253
-264
-259
-259
-257
-259
-264
-262
-259
-260
-262
-268
-266
-269
-272
-281
-292
-297
-303
-311
-322
-334
-338
-345
-352
-366
-379
-383
-391
-398
-410
-415
-417
-420
-422
-429
-434
-433
-435
-436
-443
-442
-441
-441
-443
-454
-460
-460
-468
-473
-487
-493
-501
-508
-517
-533
-540
-542
-551
-554
-565
-561
-560
-557
-556
-557
-550
-540
-532
-523
-518
-504
-493
-481
-475
-472
-462
-453
-447
-444
-441
-431
-424
-417
-417
-415
-404
-395
-385
-378
-366
-349
-332
-316
-302
-287
-265
-246
-224
-210
-187
-167
-147
-132
-124
-112
-95
-86
-75
-72
-61
-53
-45
-42
-45
-42
-33
-33
-29
-33
-23
-17
-9
-5
-3
7
18
27
36
42
55
64
73
76
76
83
88
90
90
90
95
97
98
91
84
87
87
88
85
87
94
100
106
108
111
121
127
136
136
147
156
164
170
167
170
176
176
178
172
176
177
179
177
169
168
174
171
172
165
169
170
172
171
169
175
181
184
188
187
195
199
203
201
197
201
203
202
199
196
198
197
197
188
181
183
180
179
173
172
174
176
177
173
172
178
179
184
178
186
190
194
195
190
189
191
188
188
180
183
183
184
182
173
172
177
174
174
169
174
178
183
184
183
189
196
198
200
198
204
205
207
202
196
196
195
192
185
180
181
179
178
169
164
168
169
171
168
169
174
177
179
175
174
180
180
185
178
184
185
186
184
176
172
172
166
164
154
157
156
156
152
141
139
142
138
138
132
136
138
140
138
133
135
137
133
128
120
120
115
111
99
85
79
69
56
40
27
19
10
2
-12
-23
-25
-29
-33
-41
-45
-47
-49
-52
-62
-68
-67
-73
-75
-90
-93
-100
-107
-118
-133
-144
-150
-160
-166
-180
-180
-184
-185
-190
-200
-200
-196
-198
-198
-201
-195
-191
-185
-184
-185
-177
-166
-156
-142
-124
-88
-45
9
70
143
237
341
453
571
699
834
966
1096
1214
1327
1436
1531
1616
1688
1754
1813
1865
1908
1938
1964
1989
1997
2004
1998
2003
2002
1999
1990
1971
1948
1921
1880
1834
1774
1723
1661
1590
1501
1392
1274
1143
992
827
642
448
235
7
-242
-508
-780
-1065
-1367
-1683
-2013
-2347
-2694
-3054
-3436
-3831
-4228
-4634
-5043
-5452
-5848
-6227
-6590
-6934
-7264
-7572
-7858
-8135
-8405
-8674
-8934
-9187
-9435
-9680
-9925
-10158
-10379
-10603
-10813
-11017
-11191
-11346
-11475
-11580
-11660
-11703
-11710
-11692
-11641
-11574
-11465
-11336
-11180
-11004
-10808
-10579
-10322
-10041
-9733
-9404
-9045
-8672
-8285
-7892
-7495
-7083
-6667
-6252
-5839
-5431
-5020
-4620
-4227
-3850
-3481
-3114
-2760
-2417
-2090
-1769
-1455
-1155
-868
-598
-338
-84
156
386
601
813
1017
1214
1401
1573
1742
1912
2067
2219
2356
2497
2631
2761
2882
2993
3104
3215
3313
3410
3489
3578
3655
3727
3790
3843
3896
3946
3987
4022
4049
4079
4102
4122
4134
4141
4154
4165
4173
4177
4180
4190
4197
4204
4205
4207
4219
4227
4236
4239
4248
4258
4266
4271
4269
4267
4269
4268
4266
4256
4251
4245
4236
4223
4201
4183
4171
4150
4133
4107
4092
4075
4060
4041
4017
4000
3989
3971
3959
3937
3931
3919
3909
3894
3877
3866
3856
3841
3826
3804
3790
3772
3753
3727
3698
3676
3653
3626
3595
3563
3537
3506
3476
3439
3403
3375
3344
3315
3279
3250
3224
3197
3169
3136
3105
3080
3053
3027
2995
2970
2944
2916
2886
2846
2811
2782
2745
2711
2669
2637
2602
2568
2531
2489
2454
2426
2390
2362
2326
2306
2283
2263
2241
2218
2203
2189
2174
2158
2140
2130
2117
2105
2087
2066
2051
2036
2016
1993
1970
1954
1934
1914
1888
1863
1848
1829
1811
1789
1773
1761
1748
1736
1722
1710
1705
1698
1694
1682
1681
1678
1674
1667
1653
1644
1641
1632
1625
1611
1607
1600
1594
1585
1570
1564
1564
1556
1554
1544
1548
1548
1551
1550
1547
1552
1557
1561
1567
1570
1581
1588
1594
1595
1592
1597
1600
1600
1598
1596
1600
1601
1603
1598
1595
1600
1602
1605
1603
1607
1616
1624
1633
1638
1646
1661
1672
1687
1692
1708
1721
1733
1741
1743
1749
1760
1766
1774
1774
1785
1793
1803
1811
1812
1821
1836
1845
1858
1865
1885
1903
1922
1937
1950
1970
1992
2011
2030
2046
2071
2091
2111
2125
2136
2154
2169
2181
2189
2197
2210
2220
2230
2232
2236
2247
2254
2261
2263
2271
2283
2294
2305
2313
2324
2343
2356
2373
2380
2400
2416
2433
2447
2454
2465
2480
2489
2499
2500
2510
2516
2523
2524
2518
2520
2527
2526
2527
2523
2528
2530
2532
2529
2525
2529
2534
2537
2542
2544
2556
2563
2571
2572
2571
2578
2583
2585
2584
2585
2591
2594
2595
2589
2584
2586
2584
2583
2577
2574
2576
2576
2576
2570
2568
2575
2574
2578
2571
2577
2580
2583
2582
2577
2576
2578
2575
2575
2565
2567
2563
2560
2552
2539
2533
2531
2521
2513
2498
2490
2477
2464
2446
2425
2410
2396
2376
2356
2332
2316
2296
2276
2248
2219
2197
2173
2148
2118
2091
2067
2040
2010
1970
1931
1897
1856
1815
1767
1720
1674
1627
1576
1515
1457
1406
1344
1286
1215
1156
1092
1029
964
894
827
764
695
629
554
493
427
362
292
216
148
82
9
-62
-139
-208
-280
-353
-430
-510
-582
-653
-729
-805
-883
-952
-1025
-1096
-1173
-1249
-1314
-1381
-1446
-1514
-1577
-1633
-1690
-1746
-1807
-1864
-1914
-1965
-2014
-2067
-2114
-2159
-2205
-2252
-2307
-2356
-2398
-2447
-2490
-2543
-2582
-2624
-2663
-2704
-2749
-2788
-2821
-2859
-2890
-2929
-2951
-2977
-3000
-3026
-3055
-3076
-3093
-3115
-3136
-3159
-3174
-3192
-3208
-3227
-3250
-3264
-3277
-3295
-3314
-3335
-3346
-3359
-3371
-3389
-3405
-3413
-3423
-3432
-3445
-3453
-3458
-3464
-3470
-3482
-3492
-3494
-3498
-3501
-3508
-3510
-3509
-3508
-3507
-3514
-3515
-3506
-3506
-3500
-3503
-3493
-3485
-3476
-3468
-3463
-3453
-3436
-3424
-3406
-3397
-3370
-3348
-3323
-3301
-3283
-3258
-3230
-3206
-3181
-3159
-3129
-3101
-3073
-3051
-3031
-3003
-2975
-2951
-2928
-2907
-2878
-2853
-2827
-2806
-2785
-2755
-2729
-2703
-2683
-2658
-2631
-2606
-2582
-2564
-2546
-2522
-2501
-2479
-2464
-2443
-2422
-2401
-2383
-2374
-2358
-2335
-2320
-2301
-2290
-2268
-2248
-2227
-2209
-2197
-2179
-2155
-2138
-2117
-2106
-2080
-2059
-2038
-2020
-2007
-1988
-1970
-1955
-1941
-1930
-1912
-1896
-1880
-1870
-1863
-1848
-1833
-1820
-1810
-1799
-1779
-1761
-1743
-1730
-1715
-1691
-1670
-1649
-1632
-1610
-1585
-1561
-1537
-1519
-1500
-1475
-1455
-1435
-1422
-1404
-1387
-1371
-1358
-1353
-1342
-1324
-1314
-1301
-1296
-1282
-1268
-1254
-1242
-1235
-1222
-1202
-1189
-1171
-1163
-1139
-1122
-1105
-1094
-1085
-1072
-1057
-1046
-1035
-1029
-1014
-1003
-992
-987
-986
-977
-970
-965
-961
-957
-945
-935
-924
-918
-910
-893
-879
-864
-853
-837
-816
-797
-777
-762
-747
-725
-707
-687
-676
-654
-634
-614
-596
-586
-572
-551
-537
-521
-513
-497
-484
-471
-460
-455
-442
-424
-413
-398
-392
-373
-360
-347
-339
-334
-323
-311
-302
-293
-289
-276
-269
-262
-262
-265
-260
-257
-255
-257
-257
-250
-245
-241
-244
-247
-240
-238
-235
-238
-235
-230
-225
-221
-222
-222
-213
-209
-202
-204
-192
-182
-171
-162
-159
-151
-138
-131
-121
-118
-107
-97
-87
-81
-81
-73
-61
-58
-52
-55
-46
-42
-38
-38
-40
-36
-31
-29
-27
-29
-23
-20
-18
-21
-26
-21
-16
-13
-12
-10
-2
3
8
5
4
9
10
12
8
8
11
13
12
7
3
5
1
0
-12
-10
-11
-12
-15
-24
-27
-26
-30
-32
-40
-38
-37
-35
-35
-42
-41
-34
-37
-37
-46
-45
-47
-49
-55
-63
-64
-63
-65
-67
-72
-68
-68
-67
-71
-77
-73
-70
-68
-69
-68
-60
-55
-50
-52
-52
-44
-40
-35
-34
-30
-23
-19
-17
-20
-22
-18
-19
-16
-23
-18
-16
-14
-15
-21
-23
-20
-21
-18
-21
-11
-4
5
11
10
19
32
37
45
46
56
63
71
73
72
77
82
82
80
74
76
73
70
61
50
47
43
38
29
23
22
20
17
8
2
3
2
1
-4
-5
-3
-2
-2
-10
-14
-11
-15
-15
-25
-21
-21
-21
-23
-31
-35
-35
-39
-39
-46
-40
-38
-34
-34
-40
-38
-31
-31
-30
-33
-28
-26
-22
-24
-29
-27
-25
-28
-32
-39
-38
-41
-44
-51
-59
-58
-58
-60
-65
-69
-67
-68
-69
-75
-79
-76
-76
-77
-83
-86
-87
-89
-94
-106
-115
-115
-124
-129
-144
-147
-154
-161
-170
-184
-192
-195
-203
-206
-217
-214
-215
-215
-219
-229
-231
-231
-236
-239
-246
-245
-247
-249
-255
-264
-267
-269
-276
-284
-294
-296
-300
-304
-314
-324
-325
-328
-330
-336
-338
-333
-329
-325
-327
-327
-320
-314
-308
-307
-302
-296
-289
-284
-286
-282
-268
-263
-253
-253
-241
-230
-218
-207
-198
-182
-157
-134
-104
-77
-28
26
90
162
241
341
458
583
719
857
1006
1151
1295
1429
1554
1678
1792
1893
1982
2060
2136
2201
2260
2305
2341
2376
2400
2419
2430
2445
2464
2480
2493
2498
2499
2501
2494
2484
2467
2450
2426
2389
2333
2252
2157
2048
1907
1749
1560
1362
1141
902
643
364
74
-227
-553
-892
-1257
-1620
-2002
-2394
-2801
-3226
-3659
-4102
-4558
-5020
-5486
-5939
-6382
-6806
-7212
-7593
-7940
-8261
-8564
-8850
-9120
-9367
-9603
-9824
-10039
-10244
-10433
-10620
-10802
-10980
-11141
-11279
-11398
-11492
-11564
-11607
-11616
-11597
-11546
-11470
-11359
-11220
-11054
-10864
-10657
-10420
-10152
-9871
-9567
-9252
-8907
-8547
-8172
-7788
-7400
-6998
-6585
-6177
-5764
-5363
-4949
-4547
-4150
-3764
-3387
-3012
-2644
-2288
-1941
-1607
-1275
-958
-651
-362
-88
182
441
683
912
1128
1339
1536
1722
1890
2049
2207
2352
2491
2616
2740
2861
2975
3082
3181
3275
3370
3458
3543
3615
3692
3764
3832
3893
3942
3992
4043
4083
4120
4145
4176
4203
4227
4243
4251
4263
4277
4281
4287
4282
4292
4295
4300
4302
4302
4308
4316
4322
4327
4329
4340
4347
4355
4356
4354
4359
4362
4359
4352
4343
4338
4327
4313
4290
4265
4246
4221
4194
4160
4130
4102
4071
4039
4002
3967
3939
3909
3882
3849
3827
3805
3784
3761
3731
3708
3691
3667
3647
3619
3599
3577
3556
3531
3498
3470
3447
3413
3382
3341
3313
3279
3247
3210
3171
3139
3108
3075
3042
3008
2984
2957
2933
2905
2875
2856
2836
2814
2789
2765
2747
2726
2705
2676
2649
2630
2606
2583
2553
2528
2505
2480
2454
2423
2394
2373
2348
2327
2297
2280
2261
2243
2223
2196
2175
2161
2142
2127
2106
2096
2085
2074
2060
2039
2026
2019
2003
1991
1972
1964
1953
1942
1927
1911
1901
1892
1880
1869
1855
1851
1843
1836
1824
1811
1805
1798
1789
1777
1766
1762
1756
1749
1735
1724
1722
1715
1709
1697
1689
1685
1678
1671
1661
1653
1654
1650
1651
1642
1647
1650
1654
1655
1652
1653
1661
1664
1670
1670
1681
1687
1695
1698
1695
1699
1710
1712
1718
1718
1729
1737
1746
1749
1751
1759
1768
1774
1780
1784
1797
1807
1817
1820
1822
1831
1838
1841
1840
1841
1845
1848
1851
1845
1842
1847
1848
1849
1846
1847
1852
1857
1862
1862
1867
1880
1887
1899
1900
1914
1925
1937
1947
1952
1962
1977
1988
2002
2008
2027
2042
2058
2071
2077
2091
2110
2122
2136
2143
2159
2171
2184
2191
2195
2206
2217
2226
2236
2243
2260
2273
2286
2293
2299
2313
2326
2339
2349
2362
2380
2397
2414
2425
2438
2458
2475
2493
2507
2524
2544
2563
2581
2593
2608
2631
2645
2664
2671
2690
2706
2722
2737
2747
2761
2781
2795
2812
2820
2842
2858
2876
2889
2895
2910
2928
2941
2953
2960
2972
2980
2987
2986
2982
2984
2986
2982
2977
2968
2967
2961
2954
2940
2925
2917
2907
2896
2881
2870
2864
2857
2850
2837
2825
2821
2813
2805
2793
2784
2776
2766
2753
2733
2716
2705
2683
2665
2634
2615
2591
2567
2540
2508
2480
2457
2426
2399
2362
2339
2309
2281
2249
2211
2179
2148
2112
2075
2031
1994
1952
1908
1858
1803
1753
1701
1644
1584
1519
1460
1396
1330
1257
1182
1115
1046
977
903
834
769
702
634
561
490
426
360
295
226
161
99
36
-28
-101
-170
-232
-303
-370
-446
-511
-578
-644
-713
-785
-853
-915
-983
-1046
-1119
-1175
-1237
-1297
-1360
-1427
-1487
-1543
-1602
-1660
-1721
-1774
-1830
-1885
-1946
-2009
-2063
-2117
-2174
-2233
-2293
-2344
-2398
-2451
-2509
-2566
-2613
-2662
-2709
-2760
-2804
-2842
-2881
-2920
-2963
-3002
-3033
-3065
-3093
-3126
-3152
-3175
-3198
-3222
-3253
-3280
-3298
-3324
-3345
-3373
-3390
-3409
-3426
-3446
-3468
-3484
-3494
-3509
-3518
-3536
-3536
-3541
-3543
-3548
-3555
-3555
-3553
-3555
-3555
-3559
-3554
-3553
-3551
-3554
-3559
-3555
-3552
-3551
-3552
-3554
-3549
-3547
-3544
-3547
-3548
-3540
-3535
-3528
-3525
-3516
-3502
-3488
-3475
-3466
-3453
-3434
-3416
-3396
-3383
-3363
-3343
-3323
-3306
-3298
-3285
-3264
-3251
-3235
-3226
-3207
-3191
-3174
-3160
-3153
-3139
-3118
-3106
-3087
-3076
-3049
-3026
-3002
-2981
-2963
-2940
-2915
-2893
-2871
-2852
-2825
-2801
-2776
-2756
-2739
-2715
-2692
-2673
-2656
-2641
-2618
-2599
-2580
-2567
-2553
-2531
-2514
-2495
-2483
-2464
-2441
-2419
-2397
-2380
-2361
-2335
-2313
-2288
-2273
-2249
-2227
-2206
-2188
-2179
-2165
-2145
-2132
-2117
-2111
-2096
-2085
-2072
-2064
-2062
-2053
-2038
-2030
-2016
-2010
-1988
-1970
-1949
-1931
-1913
-1888
-1861
-1837
-1811
-1787
-1754
-1725
-1697
-1675
-1658
-1634
-1612
-1594
-1580
-1567
-1548
-1533
-1519
-1512
-1505
-1490
-1479
-1467
-1461
-1449
-1434
-1420
-1405
-1392
-1378
-1357
-1340
-1321
-1310
-1288
-1269
-1248
-1230
-1219
-1201
-1178
-1160
-1139
-1126
-1105
-1087
-1068
-1053
-1044
-1027
-1004
-988
-967
-954
-927
-903
-878
-856
-835
-807
-777
-749
-720
-695
-661
-633
-606
-586
-570
-546
-525
-507
-492
-478
-458
-442
-428
-421
-413
-397
-387
-375
-370
-360
-347
-335
-324
-319
-311
-298
-288
-276
-274
-259
-249
-238
-230
-229
-223
-211
-206
-198
-198
-188
-181
-173
-167
-168
-160
-145
-140
-130
-128
-114
-104
-93
-86
-83
-73
-62
-55
-48
-45
-33
-26
-19
-20
-22
-17
-14
-12
-15
-16
-12
-9
-7
-13
-17
-13
-13
-11
-14
-13
-7
-2
3
3
6
16
19
25
20
27
31
36
38
33
32
37
35
35
27
29
29
30
29
22
24
33
35
40
39
50
57
65
68
69
77
85
89
91
90
96
97
98
92
84
84
82
78
71
66
68
67
66
59
53
56
55
57
55
57
64
69
73
71
73
83
86
93
89
99
105
110
112
107
106
109
106
106
97
101
100
102
100
92
92
97
95
96
93
99
103
108
110
109
115
122
124
125
122
127
126
124
115
105
103
98
91
79
69
63
55
47
32
19
14
5
-2
-14
-22
-27
-33
-41
-55
-66
-69
-80
-85
-101
-103
-107
-110
-116
-127
-132
-132
-137
-136
-144
-137
-134
-130
-129
-135
-131
-125
-124
-121
-123
-118
-114
-110
-110
-114
-110
-106
-107
-109
-114
-112
-112
-113
-119
-126
-124
-124
-125
-131
-133
-131
-131
-130
-136
-140
-137
-137
-137
-141
-143
-142
-142
-144
-153
-156
-151
-152
-149
-155
-148
-142
-134
-127
-122
-109
-88
-67
-36
-7
49
109
183
266
358
470
596
728
868
1009
1158
1303
1445
1576
1695
1812
1919
2016
2105
2187
2272
2347
2416
2471
2518
2564
2600
2632
2658
2687
2718
2744
2763
2768
2767
2763
2746
2721
2684
2645
2595
2530
2448
2341
2220
2088
1927
1752
1549
1336
1100
845
570
274
-34
-356
-705
-1065
-1450
-1832
-2236
-2653
-3091
-3550
-4015
-4484
-4952
-5408
-5854
-6274
-6676
-7057
-7423
-7774
-8106
-8426
-8740
-9044
-9339
-9616
-9885
-10146
-10406
-10661
-10901
-11134
-11354
-11564
-11750
-11911
-12047
-12154
-12235
-12282
-12291
-12268
-12211
-12128
-12007
-11855
-11672
-11460
-11227
-10959
-10655
-10332
-9981
-9620
-9231
-8830
-8418
-8001
-7583
-7154
-6718
-6290
-5860
-5444
-5017
-4603
-4194
-3798
-3414
-3034
-2663
-2307
-1960
-1628
-1300
-987
-687
-405
-139
122
370
603
822
1029
1234
1424
1605
1769
1924
2079
2223
2360
2483
2606
2726
2840
2948
3047
3142
3238
3326
3410
3482
3557
3627
3692
3750
3794
3839
3885
3918
3950
3969
3992
4009
4022
4029
4027
4030
4036
4033
4033
4023
4027
4025
4025
4021
4016
4017
4021
4023
4026
4026
4036
4042
4047
4046
4041
4042
4042
4038
4029
4019
4014
4003
3990
3968
3944
3928
3906
3884
3855
3833
3814
3793
3773
3748
3724
3708
3689
3674
3651
3640
3628
3617
3604
3585
3571
3563
3548
3533
3510
3496
3478
3461
3439
3412
3390
3374
3349
3328
3298
3281
3258
3237
3213
3187
3168
3152
3133
3115
3094
3083
3069
3056
3039
3019
3009
2998
2985
2970
2955
2945
2932
2917
2894
2871
2858
2840
2823
2800
2782
2768
2752
2735
2713
2692
2678
2660
2646
2625
2616
2606
2597
2587
2569
2558
2552
2541
2532
2516
2510
2502
2496
2487
2471
2463
2460
2448
2440
2424
2420
2412
2405
2394
2381
2374
2369
2360
2351
2337
2333
2323
2314
2297
2278
2265
2250
2230
2205
2180
2159
2133
2106
2071
2038
2013
1984
1957
1924
1896
1871
1845
1819
1789
1761
1741
1718
1699
1672
1659
1644
1630
1614
1592
1576
1566
1551
1541
1524
1518
1510
1504
1496
1482
1476
1476
1468
1464
1454
1456
1455
1456
1452
1447
1449
1452
1452
1451
1447
1453
1455
1458
1456
1453
1459
1464
1466
1465
1466
1472
1477
1482
1481
1482
1492
1499
1506
1509
1515
1524
1533
1541
1544
1551
1566
1574
1587
1591
1608
1622
1637
1649
1656
1668
1686
1700
1719
1731
1756
1777
1800
1819
1832
1854
1881
1900
1921
1937
1961
1982
2003
2019
2033
2053
2072
2088
2104
2116
2138
2156
2174
2186
2198
2217
2234
2249
2261
2275
2295
2311
2328
2337
2347
2366
2380
2394
2402
2413
2425
2434
2442
2443
2447
2459
2462
2470
2465
2475
2481
2488
2492
2492
2496
2506
2511
2521
2523
2539
2550
2562
2571
2573
2583
2597
2604
2612
2614
2624
2629
2632
2629
2621
2619
2615
2607
2597
2584
2579
2569
2559
2543
2525
2515
2503
2488
2470
2454
2444
2432
2419
2399
2382
2371
2356
2340
2319
2301
2285
2267
2247
2219
2195
2177
2150
2126
2090
2065
2034
2002
1966
1925
1889
1857
1819
1785
1742
1713
1678
1644
1606
1561
1525
1492
1453
1416
1374
1339
1300
1260
1214
1163
1118
1071
1019
964
905
853
795
737
671
603
542
478
414
345
281
222
161
102
36
-27
-84
-143
-202
-265
-325
-382
-439
-498
-564
-625
-679
-742
-800
-869
-926
-986
-1045
-1106
-1171
-1231
-1284
-1344
-1398
-1463
-1511
-1564
-1614
-1667
-1723
-1771
-1814
-1859
-1902
-1947
-1983
-2022
-2060
-2103
-2148
-2184
-2219
-2257
-2296
-2336
-2368
-2402
-2435
-2474
-2513
-2541
-2570
-2598
-2628
-2652
-2671
-2691
-2710
-2734
-2755
-2769
-2785
-2799
-2817
-2828
-2837
-2845
-2854
-2871
-2882
-2886
-2900
-2910
-2929
-2937
-2947
-2957
-2969
-2985
-2996
-3002
-3016
-3025
-3044
-3047
-3058
-3067
-3078
-3093
-3101
-3107
-3116
-3125
-3137
-3141
-3149
-3157
-3170
-3186
-3193
-3200
-3211
-3222
-3234
-3239
-3246
-3253
-3264
-3274
-3274
-3276
-3276
-3279
-3274
-3265
-3257
-3247
-3240
-3232
-3215
-3200
-3182
-3170
-3149
-3128
-3107
-3088
-3077
-3061
-3039
-3025
-3008
-2999
-2980
-2962
-2943
-2927
-2916
-2900
-2877
-2863
-2843
-2833
-2806
-2784
-2760
-2738
-2718
-2691
-2662
-2636
-2610
-2589
-2559
-2533
-2508
-2488
-2470
-2445
-2421
-2400
-2382
-2364
-2340
-2320
-2300
-2286
-2272
-2247
-2226
-2204
-2188
-2164
-2137
-2110
-2083
-2061
-2036
-2005
-1976
-1945
-1921
-1888
-1856
-1824
-1797
-1778
-1755
-1725
-1705
-1681
-1665
-1640
-1617
-1593
-1572
-1556
-1534
-1505
-1485
-1458
-1440
-1406
-1376
-1345
-1317
-1291
-1259
-1226
-1196
-1166
-1141
-1108
-1079
-1051
-1030
-1012
-987
-965
-947
-934
-921
-903
-889
-876
-872
-867
-854
-845
-835
-831
-820
-805
-792
-779
-770
-758
-740
-723
-704
-693
-672
-653
-634
-619
-613
-601
-584
-575
-563
-559
-545
-535
-524
-517
-515
-507
-493
-488
-477
-475
-457
-445
-431
-421
-412
-397
-380
-365
-351
-339
-318
-301
-282
-270
-259
-240
-222
-207
-195
-184
-166
-150
-134
-122
-106
-80
-54
-24
7
49
102
163
235
317
415
532
653
782
905
1040
1172
1300
1417
1517
1610
1694
1760
1815
1852
1887
1909
1921
1917
1896
1873
1850
1813
1774
1723
1682
1638
1593
1538
1472
1403
1323
1227
1119
993
860
704
530
331
112
-120
-378
-663
-972
-1299
-1640
-2000
-2377
-2777
-3188
-3601
-4028
-4462
-4908
-5361
-5823
-6298
-6787
-7292
-7802
-8310
-8822
-9320
-9806
-10248
-10657
-11027
-11360
-11659
-11914
-12128
-12315
-12474
-12619
-12737
-12851
-12962
-13082
-13215
-13344
-13469
-13600
-13721
-13834
-13916
-13974
-13998
-13988
-13937
-13835
-13688
-13500
-13267
-12995
-12674
-12323
-11938
-11531
-11099
-10637
-10160
-9671
-9174
-8669
-8154
-7640
-7128
-6628
-6132
-5635
-5151
-4675
-4213
-3757
-3307
-2869
-2442
-2032
-1633
-1239
-868
-506
-170
164
480
783
1069
1336
1594
1844
2075
2296
2494
2691
2872
3042
3199
3339
3479
3616
3738
3855
3959
4067
4166
4262
4348
4427
4509
4588
4658
4723
4779
4838
4886
4927
4954
4974
4995
5009
5014
5008
5000
4991
4976
4957
4927
4897
4873
4843
4814
4781
4752
4727
4703
4679
4650
4626
4611
4590
4575
4551
4542
4531
4522
4510
4493
4479
4468
4449
4431
4401
4382
4355
4328
4294
4254
4220
4190
4153
4117
4076
4044
4011
3982
3950
3919
3898
3881
3863
3847
3833
3830
3825
3822
3814
3807
3808
3807
3804
3795
3788
3783
3772
3758
3733
3708
3687
3660
3633
3600
3569
3541
3512
3482
3445
3414
3393
3364
3343
3314
3299
3284
3271
3258
3241
3229
3223
3212
3205
3187
3185
3176
3168
3155
3135
3121
3107
3086
3064
3035
3014
2988
2963
2933
2900
2876
2853
2828
2802
2777
2761
2744
2728
2708
2690
2682
2673
2664
2650
2641
2636
2628
2618
2601
2585
2574
2560
2546
2526
2510
2495
2480
2463
2438
2419
2408
2389
2375
2353
2344
2334
2325
2315
2302
2295
2294
2288
2287
2277
2283
2285
2289
2288
2283
2284
2287
2285
2283
2276
2277
2274
2270
2261
2248
2242
2235
2225
2213
2199
2193
2185
2179
2167
2157
2157
2155
2154
2148
2149
2152
2154
2156
2151
2148
2152
2155
2158
2156
2159
2163
2167
2167
2160
2158
2164
2162
2163
2156
2160
2161
2163
2161
2155
2155
2161
2161
2167
2163
2176
2183
2193
2199
2201
2210
2221
2229
2237
2242
2255
2265
2276
2281
2284
2295
2305
2310
2314
2318
2329
2337
2345
2347
2349
2359
2365
2370
2369
2372
2379
2384
2388
2388
2389
2397
2401
2406
2403
2407
2410
2412
2411
2402
2398
2401
2397
2396
2387
2387
2385
2383
2376
2365
2359
2360
2353
2353
2342
2346
2345
2346
2343
2336
2337
2339
2340
2342
2340
2348
2353
2357
2355
2349
2352
2353
2351
2347
2343
2346
2346
2347
2342
2338
2342
2343
2343
2338
2338
2341
2342
2341
2335
2329
2328
2323
2318
2304
2299
2292
2285
2276
2259
2249
2245
2235
2228
2212
2206
2198
2190
2181
2167
2160
2161
2154
2152
2140
2141
2137
2133
2123
2109
2099
2089
2075
2059
2038
2025
2006
1987
1960
1930
1906
1881
1853
1821
1789
1763
1732
1701
1663
1625
1594
1558
1522
1479
1439
1402
1361
1318
1267
1216
1169
1116
1064
1001
946
888
828
765
692
624
561
491
422
346
280
211
145
76
2
-62
-120
-185
-243
-310
-363
-419
-472
-528
-584
-633
-681
-731
-782
-837
-884
-935
-987
-1046
-1106
-1159
-1213
-1268
-1325
-1380
-1427
-1476
-1524
-1578
-1629
-1669
-1713
-1753
-1797
-1834
-1866
-1899
-1932
-1969
-2004
-2033
-2066
-2097
-2137
-2164
-2194
-2224
-2255
-2293
-2325
-2351
-2383
-2412
-2448
-2474
-2501
-2527
-2554
-2586
-2609
-2625
-2648
-2665
-2688
-2698
-2710
-2721
-2736
-2751
-2759
-2765
-2774
-2782
-2793
-2794
-2798
-2801
-2809
-2817
-2815
-2813
-2812
-2812
-2811
-2802
-2795
-2789
-2789
-2786
-2773
-2763
-2751
-2744
-2731
-2715
-2699
-2684
-2674
-2661
-2641
-2628
-2611
-2604
-2583
-2565
-2547
-2531
-2521
-2506
-2486
-2470
-2453
-2443
-2421
-2402
-2381
-2363
-2353
-2334
-2310
-2294
-2276
-2265
-2243
-2225
-2206
-2192
-2179
-2160
-2141
-2126
-2111
-2100
-2081
-2065
-2050
-2040
-2032
-2015
-2000
-1985
-1973
-1958
-1939
-1922
-1905
-1895
-1883
-1862
-1845
-1828
-1815
-1799
-1780
-1764
-1750
-1742
-1732
-1714
-1704
-1689
-1685
-1668
-1655
-1641
-1629
-1623
-1611
-1596
-1584
-1568
-1559
-1536
-1517
-1496
-1478
-1466
-1445
-1419
-1401
-1381
-1367
-1343
-1322
-1301
-1285
-1272
-1253
-1233
-1219
-1205
-1196
-1178
-1163
-1148
-1138
-1128
-1109
-1091
-1073
-1060
-1043
-1021
-1001
-981
-968
-952
-928
-908
-887
-871
-853
-833
-814
-796
-784
-768
-744
-729
-708
-700
-680
-665
-652
-644
-641
-634
-622
-616
-604
-602
-584
-570
-555
-544
-539
-526
-509
-499
-488
-482
-469
-459
-451
-449
-450
-446
-442
-442
-444
-448
-445
-445
-445
-452
-459
-459
-460
-462
-468
-469
-465
-460
-455
-455
-452
-442
-434
-427
-424
-418
-410
-402
-397
-400
-399
-390
-391
-387
-397
-396
-398
-402
-411
-424
-433
-438
-448
-454
-470
-470
-477
-482
-493
-509
-517
-523
-532
-540
-550
-553
-559
-564
-575
-588
-594
-599
-608
-618
-630
-633
-639
-644
-656
-667
-671
-677
-683
-694
-699
-699
-700
-701
-707
-710
-706
-704
-702
-705
-702
-697
-692
-688
-693
-691
-682
-683
-681
-689
-687
-688
-689
-693
-701
-703
-699
-701
-698
-705
-696
-693
-687
-686
-688
-681
-672
-667
-660
-657
-646
-638
-631
-631
-633
-628
-624
-624
-625
-627
-622
-622
-622
-630
-638
-638
-641
-644
-652
-654
-652
-650
-648
-650
-650
-644
-639
-633
-632
-623
-614
-604
-596
-596
-591
-580
-577
-571
-574
-569
-566
-563
-564
-570
-571
-566
-568
-565
-572
-563
-560
-554
-551
-551
-544
-534
-527
-518
-513
-499
-489
-480
-476
-476
-468
-462
-459
-459
-461
-456
-455
-454
-460
-465
-462
-462
-461
-465
-462
-455
-449
-444
-443
-441
-432
-426
-418
-416
-405
-393
-381
-370
-367
-358
-343
-336
-326
-325
-314
-305
-294
-287
-286
-278
-263
-257
-247
-247
-233
-225
-214
-207
-202
-190
-176
-164
-152
-143
-125
-110
-94
-83
-74
-56
-39
-24
-13
-3
12
22
31
31
32
41
45
51
51
57
66
73
80
83
88
101
111
125
131
148
164
181
195
202
214
232
243
256
261
275
287
301
309
310
318
331
334
343
342
355
363
373
379
383
393
403
410
417
420
432
440
448
450
451
458
465
467
467
465
469
469
468
459
451
453
449
447
438
434
432
428
421
409
397
389
377
368
350
342
331
319
303
279
260
246
228
213
192
182
171
163
152
135
126
124
114
109
98
100
98
98
94
89
89
89
85
82
75
78
76
75
68
59
58
55
49
41
34
34
31
29
21
13
15
14
12
5
3
3
1
-2
-10
-15
-13
-17
-17
-27
-25
-27
-29
-33
-44
-49
-49
-52
-51
-57
-51
-47
-42
-40
-44
-39
-27
-24
-17
-17
-6
2
9
11
11
15
20
20
20
16
20
20
19
12
3
1
-3
-8
-16
-23
-23
-26
-28
-37
-44
-42
-44
-45
-51
-53
-52
-52
-53
-60
-65
-62
-67
-67
-79
-78
-82
-86
-92
-105
-113
-115
-122
-126
-137
-136
-139
-140
-145
-155
-157
-152
-154
-153
-157
-152
-151
-149
-152
-158
-159
-159
-162
-165
-172
-169
-171
-172
-179
-187
-187
-190
-193
-200
-203
-200
-200
-199
-205
-209
-204
-204
-203
-206
-207
-205
-203
-203
-209
-212
-208
-212
-212
-222
-219
-219
-219
-220
-226
-226
-221
-220
-215
-218
-207
-202
-194
-190
-192
-186
-175
-171
-165
-163
-153
-147
-142
-141
-143
-137
-131
-128
-126
-126
-118
-114
-111
-113
-116
-110
-107
-105
-106
-104
-98
-94
-90
-94
-96
-92
-92
-92
-98
-101
-100
-101
-103
-112
-118
-116
-123
-126
-140
-142
-146
-149
-154
-163
-165
-162
-163
-160
-164
-153
-146
-136
-129
-126
-114
-97
-84
-71
-62
-47
-35
-23
-16
-12
-1
10
18
24
28
38
44
49
47
44
50
54
57
57
62
70
78
85
87
90
99
106
113
115
121
129
136
140
135
135
141
138
139
130
132
132
131
128
120
118
120
115
115
105
111
113
117
118
115
121
129
134
140
142
152
159
167
169
168
174
180
181
180
176
179
177
173
163
152
150
146
142
134
131
133
133
133
128
125
128
131
134
133
138
143
148
150
144
144
151
149
151
145
149
150
152
151
145
144
148
145
147
139
147
150
154
155
151
154
159
160
161
159
165
167
169
166
160
161
161
157
150
140
138
131
124
111
99
95
88
83
72
67
64
61
58
50
45
46
45
46
42
45
49
52
52
44
41
45
40
41
32
34
33
32
28
19
17
21
17
20
12
20
23
29
31
30
36
42
45
50
50
61
68
77
81
83
93
102
108
113
117
130
142
157
169
184
214
247
291
339
404
485
579
684
795
916
1050
1184
1318
1442
1567
1683
1788
1877
1945
2006
2062
2098
2125
2137
2149
2150
2142
2120
2082
2045
2010
1963
1917
1857
1805
1741
1669
1584
1488
1389
1284
1168
1044
905
761
598
421
224
11
-206
-435
-679
-936
-1203
-1474
-1755
-2042
-2342
-2648
-2952
-3265
-3582
-3908
-4234
-4565
-4907
-5255
-5612
-5968
-6316
-6659
-6986
-7303
-7588
-7852
-8095
-8323
-8545
-8754
-8950
-9147
-9335
-9524
-9698
-9866
-10027
-10187
-10353
-10506
-10643
-10775
-10884
-10983
-11048
-11094
-11115
-11114
-11087
-11028
-10942
-10836
-10705
-10555
-10372
-10169
-9943
-9699
-9434
-9136
-8815
-8474
-8118
-7745
-7355
-6959
-6559
-6163
-5765
-5360
-4964
-4572
-4194
-3820
-3451
-3093
-2746
-2415
-2092
-1775
-1475
-1184
-916
-649
-397
-156
71
282
488
691
879
1062
1229
1397
1556
1708
1850
1980
2113
2247
2368
2489
2597
2713
2820
2923
3017
3105
3195
3282
3361
3436
3502
3571
3631
3686
3730
3766
3805
3839
3866
3888
3907
3929
3946
3961
3967
3973
3987
3997
4008
4014
4024
4039
4054
4067
4077
4088
4107
4120
4138
4144
4162
4177
4190
4199
4201
4205
4212
4212
4211
4200
4198
4190
4181
4167
4145
4131
4120
4101
4084
4060
4045
4027
4009
3987
3964
3949
3936
3919
3904
3885
3875
3861
3846
3826
3803
3787
3769
3748
3723
3699
3680
3657
3632
3599
3567
3542
3514
3486
3454
3427
3404
3380
3357
3329
3304
3287
3264
3245
3218
3205
3190
3176
3160
3140
3124
3112
3095
3081
3058
3047
3032
3018
3000
2975
2957
2944
2923
2903
2878
2863
2845
2829
2809
2787
2774
2762
2747
2733
2717
2710
2700
2690
2675
2659
2652
2643
2632
2618
2606
2597
2585
2572
2552
2533
2522
2508
2495
2479
2465
2455
2445
2433
2415
2400
2393
2378
2367
2347
2340
2330
2320
2308
2290
2277
2269
2257
2248
2231
2228
2220
2215
2207
2193
2188
2187
2181
2177
2168
2167
2164
2163
2156
2147
2144
2141
2134
2127
2117
2115
2110
2105
2095
2085
2084
2081
2078
2071
2069
2072
2073
2074
2069
2066
2071
2073
2076
2075
2077
2081
2082
2082
2073
2069
2072
2067
2067
2056
2058
2057
2056
2053
2045
2041
2043
2040
2041
2033
2041
2044
2049
2049
2043
2044
2047
2045
2043
2036
2038
2037
2037
2032
2024
2023
2022
2017
2010
2001
2001
1998
1996
1988
1981
1983
1983
1982
1976
1974
1975
1976
1975
1969
1965
1968
1969
1970
1966
1966
1969
1971
1970
1963
1960
1966
1964
1967
1959
1962
1963
1964
1963
1958
1958
1964
1965
1971
1967
1980
1988
1997
2003
2004
2013
2023
2030
2038
2042
2054
2063
2072
2076
2076
2083
2089
2091
2090
2088
2093
2094
2096
2091
2087
2091
2091
2093
2090
2092
2097
2099
2102
2098
2097
2101
2104
2106
2103
2106
2108
2110
2109
2099
2096
2100
2095
2094
2084
2084
2082
2080
2075
2064
2061
2063
2060
2062
2054
2062
2064
2067
2064
2058
2059
2061
2061
2062
2057
2059
2056
2052
2040
2024
2015
2003
1986
1966
1944
1928
1908
1887
1857
1824
1798
1767
1735
1697
1664
1633
1601
1568
1529
1491
1458
1421
1385
1341
1303
1264
1225
1183
1131
1084
1044
994
948
892
846
797
748
696
639
590
547
495
448
391
348
301
254
203
149
102
57
8
-40
-92
-137
-187
-238
-296
-358
-412
-468
-528
-590
-653
-709
-768
-827
-894
-959
-1015
-1074
-1131
-1191
-1244
-1293
-1341
-1388
-1439
-1487
-1528
-1570
-1610
-1655
-1690
-1725
-1757
-1792
-1834
-1871
-1903
-1941
-1978
-2021
-2055
-2091
-2125
-2162
-2205
-2240
-2269
-2305
-2335
-2374
-2398
-2425
-2451
-2480
-2508
-2529
-2546
-2566
-2583
-2603
-2613
-2628
-2641
-2659
-2679
-2692
-2704
-2719
-2736
-2752
-2762
-2775
-2788
-2807
-2825
-2834
-2847
-2857
-2872
-2880
-2883
-2887
-2892
-2900
-2906
-2905
-2908
-2908
-2916
-2912
-2910
-2909
-2911
-2920
-2924
-2923
-2929
-2931
-2941
-2941
-2942
-2943
-2946
-2955
-2955
-2948
-2951
-2948
-2954
-2946
-2941
-2934
-2929
-2924
-2912
-2898
-2886
-2874
-2866
-2848
-2834
-2819
-2809
-2800
-2784
-2767
-2753
-2741
-2728
-2708
-2692
-2676
-2666
-2655
-2635
-2620
-2603
-2592
-2576
-2557
-2539
-2522
-2512
-2500
-2482
-2469
-2453
-2447
-2428
-2414
-2399
-2388
-2384
-2375
-2362
-2354
-2344
-2341
-2327
-2315
-2300
-2288
-2283
-2269
-2248
-2235
-2217
-2206
-2183
-2162
-2140
-2121
-2105
-2083
-2059
-2040
-2021
-2007
-1984
-1966
-1948
-1936
-1925
-1907
-1890
-1876
-1865
-1853
-1836
-1822
-1809
-1801
-1791
-1771
-1755
-1737
-1724
-1705
-1682
-1661
-1642
-1627
-1610
-1585
-1567
-1545
-1533
-1509
-1489
-1469
-1452
-1443
-1429
-1410
-1396
-1380
-1372
-1352
-1336
-1317
-1301
-1292
-1274
-1250
-1233
-1212
-1197
-1171
-1148
-1124
-1104
-1087
-1065
-1043
-1027
-1011
-1001
-983
-970
-958
-953
-950
-940
-932
-926
-925
-921
-912
-906
-899
-899
-897
-886
-878
-868
-862
-852
-839
-826
-814
-808
-797
-779
-767
-751
-746
-727
-712
-696
-684
-677
-664
-647
-635
-619
-611
-591
-574
-557
-544
-537
-522
-502
-488
-470
-457
-434
-413
-390
-371
-354
-331
-307
-287
-268
-252
-228
-208
-187
-173
-161
-140
-122
-107
-96
-83
-66
-51
-37
-32
-25
-12
-3
5
8
13
21
27
32
31
33
44
47
54
51
60
66
74
79
80
86
98
105
116
118
134
144
157
165
167
178
193
202
212
216
229
237
246
248
247
253
259
262
264
265
275
281
288
289
291
300
309
319
327
342
364
387
413
435
464
505
550
601
658
731
820
922
1032
1141
1259
1388
1509
1634
1743
1859
1963
2057
2136
2197
2252
2301
2334
2359
2361
2366
2353
2331
2295
2246
2195
2139
2070
1994
1904
1812
1707
1590
1456
1304
1141
959
753
526
280
23
-256
-550
-861
-1182
-1500
-1826
-2157
-2499
-2841
-3182
-3523
-3859
-4193
-4521
-4839
-5159
-5479
-5806
-6131
-6460
-6793
-7131
-7474
-7804
-8111
-8404
-8663
-8902
-9099
-9268
-9408
-9526
-9628
-9712
-9785
-9867
-9952
-10063
-10178
-10317
-10469
-10634
-10809
-10976
-11133
-11278
-11397
-11487
-11529
-11531
-11487
-11402
-11275
-11097
-10881
-10636
-10361
-10060
-9726
-9372
-8998
-8613
-8216
-7802
-7384
-6963
-6545
-6124
-5703
-5289
-4881
-4485
-4095
-3708
-3332
-2964
-2610
-2258
-1914
-1580
-1257
-953
-655
-360
-85
183
431
679
914
1138
1349
1543
1731
1913
2076
2232
2369
2511
2639
2761
2870
2971
3071
3168
3257
3341
3418
3499
3573
3644
3706
3764
3826
3884
3935
3979
4017
4058
4090
4117
4133
4146
4163
4172
4179
4177
4178
4180
4178
4173
4162
4152
4149
4144
4142
4135
4138
4142
4148
4151
4147
4149
4157
4158
4162
4156
4160
4159
4158
4151
4135
4123
4115
4096
4079
4050
4033
4010
3987
3959
3928
3902
3877
3850
3824
3795
3776
3756
3738
3716
3695
3683
3671
3657
3642
3626
3617
3605
3593
3574
3556
3546
3530
3514
3491
3471
3452
3430
3405
3374
3344
3320
3293
3268
3235
3214
3192
3172
3150
3122
3101
3087
3069
3055
3037
3029
3021
3016
3007
2991
2983
2981
2971
2964
2948
2946
2937
2927
2913
2894
2879
2864
2843
2822
2796
2780
2761
2742
2718
2694
2679
2663
2646
2627
2610
2601
2590
2582
2569
2557
2553
2546
2539
2526
2518
2512
2504
2494
2478
2463
2453
2439
2426
2404
2392
2376
2360
2341
2315
2295
2282
2262
2246
2224
2213
2200
2190
2177
2157
2146
2142
2129
2120
2104
2101
2093
2086
2074
2060
2051
2044
2033
2023
2010
2007
2001
1995
1984
1971
1967
1962
1955
1946
1939
1939
1938
1938
1932
1928
1933
1933
1934
1929
1930
1933
1936
1937
1934
1933
1938
1937
1940
1932
1936
1936
1937
1936
1929
1927
1931
1931
1933
1929
1934
1937
1941
1941
1935
1939
1949
1951
1958
1959
1969
1976
1983
1985
1983
1988
1993
1994
1995
1993
1999
2002
2004
1999
1992
1992
1991
1987
1979
1974
1974
1972
1970
1960
1951
1949
1941
1934
1920
1910
1903
1894
1884
1868
1854
1847
1832
1822
1800
1792
1780
1768
1755
1737
1725
1718
1707
1700
1687
1686
1683
1684
1682
1675
1679
1689
1694
1703
1707
1722
1733
1745
1752
1755
1764
1774
1779
1784
1785
1794
1799
1804
1801
1797
1800
1801
1802
1800
1802
1810
1816
1823
1823
1826
1838
1846
1855
1861
1870
1882
1893
1902
1904
1908
1919
1920
1925
1918
1924
1925
1927
1926
1918
1915
1916
1912
1910
1899
1902
1900
1900
1897
1888
1888
1893
1891
1891
1886
1890
1890
1891
1885
1877
1876
1875
1868
1859
1845
1838
1825
1810
1787
1762
1743
1721
1697
1669
1642
1620
1594
1567
1531
1496
1468
1436
1404
1368
1336
1306
1273
1237
1193
1150
1113
1066
1021
963
916
865
814
760
700
644
592
534
481
418
370
318
267
214
156
107
61
10
-39
-92
-137
-184
-229
-279
-330
-373
-415
-461
-507
-556
-596
-640
-683
-733
-782
-822
-864
-905
-951
-993
-1031
-1071
-1112
-1159
-1204
-1242
-1283
-1322
-1365
-1403
-1438
-1473
-1508
-1550
-1587
-1615
-1651
-1681
-1720
-1745
-1772
-1798
-1826
-1859
-1886
-1908
-1935
-1958
-1990
-2006
-2028
-2048
-2072
-2101
-2123
-2143
-2166
-2188
-2213
-2230
-2248
-2265
-2286
-2309
-2324
-2337
-2353
-2370
-2386
-2394
-2404
-2413
-2427
-2440
-2443
-2448
-2452
-2462
-2466
-2467
-2470
-2473
-2481
-2487
-2486
-2488
-2489
-2494
-2494
-2493
-2493
-2494
-2504
-2507
-2501
-2502
-2498
-2503
-2496
-2491
-2484
-2477
-2475
-2466
-2452
-2443
-2429
-2424
-2402
-2386
-2368
-2353
-2343
-2327
-2310
-2296
-2283
-2273
-2255
-2240
-2224
-2213
-2204
-2188
-2173
-2162
-2152
-2143
-2125
-2110
-2094
-2082
-2070
-2049
-2031
-2013
-2000
-1982
-1962
-1943
-1925
-1911
-1896
-1875
-1858
-1841
-1831
-1815
-1800
-1786
-1776
-1775
-1769
-1756
-1750
-1741
-1740
-1729
-1720
-1710
-1703
-1701
-1692
-1677
-1670
-1657
-1653
-1634
-1620
-1604
-1593
-1586
-1573
-1559
-1549
-1538
-1532
-1519
-1510
-1502
-1501
-1503
-1498
-1495
-1496
-1500
-1504
-1501
-1500
-1499
-1505
-1509
-1504
-1502
-1498
-1500
-1495
-1487
-1479
-1470
-1465
-1457
-1443
-1431
-1417
-1410
-1393
-1378
-1361
-1346
-1339
-1326
-1307
-1295
-1281
-1275
-1261
-1249
-1236
-1227
-1223
-1211
-1192
-1182
-1165
-1158
-1135
-1117
-1098
-1082
-1069
-1050
-1029
-1012
-994
-980
-958
-940
-923
-912
-906
-892
-880
-872
-867
-863
-852
-845
-839
-840
-840
-833
-830
-828
-831
-829
-824
-820
-817
-818
-818
-812
-809
-803
-806
-798
-791
-784
-777
-777
-770
-757
-751
-743
-742
-732
-724
-714
-708
-708
-699
-684
-676
-663
-659
-642
-629
-616
-606
-598
-583
-568
-556
-543
-535
-519
-507
-497
-493
-492
-484
-477
-473
-471
-469
-461
-456
-451
-452
-452
-443
-438
-432
-429
-421
-409
-397
-385
-377
-367
-349
-336
-320
-314
-295
-280
-264
-251
-246
-236
-221
-214
-205
-205
-195
-189
-181
-176
-178
-171
-158
-153
-144
-142
-129
-119
-108
-101
-96
-84
-70
-59
-48
-41
-26
-15
-6
-5
-5
2
9
12
11
9
12
12
11
3
-4
-2
-4
-4
-8
-8
-3
0
4
2
3
11
14
22
19
30
37
44
47
43
43
45
42
40
31
31
28
26
21
10
8
12
8
8
2
8
11
16
18
18
25
34
40
45
47
57
62
68
67
65
70
74
75
72
71
74
74
73
64
57
60
59
60
57
58
63
67
70
67
68
76
78
85
80
89
94
99
100
94
92
94
91
90
81
84
83
83
80
71
70
73
70
71
67
73
78
84
87
87
93
100
103
105
103
110
112
114
111
106
110
112
113
110
108
112
115
117
112
110
114
115
116
112
112
113
113
111
101
95
96
89
87
73
73
69
65
58
46
38
36
30
28
18
20
18
17
10
-3
-8
-10
-18
-25
-37
-41
-49
-56
-68
-83
-91
-99
-110
-122
-135
-140
-147
-155
-167
-180
-184
-190
-196
-204
-208
-206
-205
-205
-211
-215
-211
-210
-209
-214
-215
-215
-216
-220
-231
-237
-235
-241
-241
-252
-250
-249
-248
-249
-254
-253
-246
-244
-237
-239
-225
-216
-206
-199
-198
-188
-175
-168
-159
-155
-143
-136
-129
-129
-132
-130
-129
-133
-139
-147
-146
-150
-154
-163
-172
-172
-175
-178
-184
-185
-180
-176
-170
-170
-166
-156
-147
-138
-133
-124
-112
-101
-92
-90
-83
-69
-64
-56
-59
-51
-47
-44
-44
-48
-48
-42
-43
-37
-40
-28
-22
-13
-8
-6
4
17
27
39
47
62
74
86
91
93
101
108
111
112
110
115
116
115
106
96
94
89
86
77
73
74
74
74
70
68
72
75
78
75
79
83
88
91
86
85
92
89
90
81
82
81
80
77
69
66
69
64
63
52
56
55
55
52
45
44
46
45
44
40
44
43
43
37
29
28
28
24
20
14
16
15
13
5
-4
-4
-7
-10
-18
-20
-18
-18
-19
-25
-30
-30
-32
-34
-41
-40
-38
-36
-36
-45
-47
-42
-44
-43
-49
-46
-44
-41
-40
-45
-43
-35
-35
-30
-37
-28
-26
-22
-22
-24
-20
-15
-14
-13
-16
-12
-12
-13
-20
-28
-29
-30
-35
-41
-47
-45
-46
-47
-54
-59
-55
-54
-51
-53
-48
-41
-35
-30
-31
-32
-27
-26
-23
-28
-23
-21
-18
-19
-28
-32
-30
-36
-38
-48
-48
-50
-52
-58
-70
-75
-74
-83
-86
-99
-99
-103
-106
-112
-120
-122
-123
-128
-132
-140
-139
-142
-145
-154
-165
-167
-170
-174
-182
-190
-192
-198
-202
-213
-223
-223
-226
-228
-234
-235
-232
-230
-228
-230
-230
-223
-219
-212
-215
-207
-202
-197
-196
-203
-205
-203
-207
-209
-219
-220
-222
-224
-229
-240
-242
-238
-243
-242
-249
-243
-240
-235
-234
-235
-229
-222
-219
-216
-218
-211
-208
-206
-210
-218
-219
-222
-229
-240
-251
-255
-262
-268
-279
-287
-285
-285
-284
-287
-285
-277
-271
-263
-260
-253
-239
-228
-211
-205
-185
-168
-151
-137
-130
-118
-101
-91
-78
-71
-55
-43
-29
-18
-15
-4
13
21
34
41
59
73
88
98
107
122
138
150
161
168
184
196
209
215
219
230
239
245
247
250
257
262
267
265
265
274
279
284
284
287
294
300
307
309
315
328
336
348
349
363
373
384
391
391
396
406
410
417
415
423
427
432
432
425
427
434
434
436
433
439
442
445
443
438
438
439
436
434
428
432
434
436
432
428
430
431
430
427
428
436
443
452
457
466
488
510
539
571
616
676
746
828
917
1020
1139
1258
1385
1501
1626
1743
1853
1950
2030
2103
2169
2219
2261
2284
2310
2325
2334
2329
2307
2286
2263
2231
2199
2158
2121
2076
2023
1956
1876
1795
1706
1608
1504
1390
1274
1140
992
822
635
443
235
13
-226
-473
-728
-995
-1271
-1561
-1856
-2152
-2457
-2769
-3090
-3413
-3741
-4079
-4430
-4796
-5165
-5530
-5902
-6262
-6620
-6948
-7259
-7549
-7820
-8079
-8321
-8551
-8780
-9001
-9225
-9429
-9633
-9828
-10020
-10214
-10395
-10564
-10725
-10866
-10991
-11085
-11158
-11204
-11228
-11226
-11189
-11122
-11032
-10920
-10786
-10621
-10438
-10232
-10010
-9765
-9488
-9188
-8868
-8531
-8174
-7801
-7419
-7032
-6646
-6255
-5856
-5460
-5066
-4681
-4297
-3919
-3548
-3189
-2845
-2506
-2169
-1852
-1541
-1251
-960
-683
-416
-163
74
303
526
732
931
1109
1294
1464
1626
1776
1915
2054
2191
2317
2440
2554
2671
2781
2887
2983
3073
3167
3257
3339
3415
3483
3554
3614
3669
3712
3749
3789
3820
3846
3861
3876
3890
3898
3900
3892
3882
3877
3868
3858
3842
3833
3826
3821
3815
3803
3799
3804
3802
3806
3801
3809
3816
3823
3828
3826
3829
3837
3835
3836
3825
3826
3820
3813
3800
3781
3766
3752
3731
3710
3682
3662
3638
3615
3587
3557
3536
3517
3496
3476
3456
3446
3434
3424
3409
3394
3389
3381
3373
3360
3351
3344
3332
3318
3297
3275
3257
3235
3212
3183
3158
3134
3110
3084
3050
3021
3002
2975
2954
2926
2910
2893
2879
2863
2842
2827
2817
2801
2791
2770
2766
2755
2746
2731
2713
2700
2688
2672
2655
2634
2621
2604
2588
2568
2545
2531
2518
2502
2484
2467
2458
2446
2437
2422
2409
2408
2403
2399
2390
2387
2388
2387
2385
2379
2373
2373
2369
2366
2355
2351
2345
2338
2327
2307
2295
2289
2277
2268
2252
2247
2239
2232
2223
2208
2201
2201
2192
2190
2178
2183
2183
2184
2180
2175
2175
2176
2175
2175
2172
2177
2179
2180
2177
2170
2171
2170
2166
2160
2154
2156
2155
2154
2149
2144
2149
2151
2154
2151
2153
2158
2162
2166
2166
2168
2176
2180
2186
2182
2188
2191
2193
2193
2184
2180
2182
2178
2176
2166
2166
2163
2161
2155
2144
2142
2148
2146
2150
2146
2156
2163
2170
2173
2174
2180
2188
2192
2197
2198
2208
2214
2220
2221
2218
2224
2229
2232
2232
2233
2241
2248
2256
2259
2263
2276
2285
2297
2303
2315
2331
2347
2362
2372
2383
2400
2413
2429
2434
2450
2463
2475
2485
2487
2494
2507
2512
2520
2519
2527
2532
2538
2540
2535
2538
2547
2546
2550
2545
2551
2553
2556
2554
2550
2552
2556
2556
2556
2552
2556
2554
2552
2543
2530
2524
2516
2506
2493
2482
2476
2468
2460
2445
2433
2429
2421
2415
2403
2397
2395
2392
2388
2379
2372
2372
2365
2361
2347
2345
2340
2335
2326
2311
2299
2292
2278
2267
2247
2238
2225
2214
2198
2176
2163
2154
2138
2125
2105
2096
2084
2072
2055
2037
2025
2014
1999
1984
1965
1955
1939
1923
1900
1873
1854
1831
1805
1775
1745
1719
1690
1660
1622
1584
1554
1520
1488
1452
1420
1392
1364
1334
1298
1264
1236
1201
1171
1129
1099
1065
1030
991
944
900
859
811
765
709
662
610
558
501
436
378
322
259
197
128
67
3
-61
-129
-201
-265
-328
-394
-461
-530
-591
-655
-719
-790
-862
-925
-990
-1056
-1126
-1193
-1255
-1319
-1384
-1455
-1523
-1582
-1642
-1700
-1761
-1817
-1868
-1918
-1968
-2024
-2075
-2117
-2164
-2206
-2257
-2294
-2331
-2368
-2406
-2449
-2486
-2520
-2557
-2590
-2632
-2659
-2689
-2717
-2747
-2783
-2809
-2831
-2858
-2882
-2911
-2929
-2949
-2967
-2988
-3010
-3023
-3035
-3050
-3064
-3081
-3088
-3099
-3108
-3123
-3137
-3141
-3146
-3152
-3162
-3167
-3166
-3166
-3166
-3171
-3174
-3169
-3167
-3164
-3164
-3161
-3155
-3151
-3147
-3151
-3148
-3137
-3134
-3126
-3128
-3117
-3108
-3099
-3090
-3086
-3075
-3060
-3048
-3031
-3022
-2997
-2977
-2954
-2935
-2921
-2900
-2875
-2854
-2831
-2812
-2785
-2760
-2734
-2714
-2696
-2671
-2648
-2629
-2612
-2597
-2574
-2556
-2536
-2521
-2507
-2483
-2461
-2439
-2422
-2400
-2374
-2348
-2323
-2303
-2280
-2251
-2224
-2197
-2176
-2152
-2127
-2103
-2082
-2071
-2055
-2031
-2018
-2000
-1992
-1974
-1958
-1943
-1931
-1923
-1910
-1892
-1879
-1861
-1851
-1824
-1804
-1781
-1762
-1747
-1724
-1699
-1676
-1653
-1632
-1605
-1581
-1558
-1542
-1530
-1513
-1498
-1488
-1482
-1478
-1467
-1460
-1453
-1453
-1451
-1441
-1433
-1424
-1419
-1407
-1392
-1376
-1360
-1348
-1335
-1315
-1298
-1281
-1270
-1254
-1237
-1221
-1207
-1201
-1189
-1169
-1158
-1142
-1135
-1119
-1104
-1089
-1077
-1069
-1056
-1037
-1026
-1008
-1001
-978
-961
-943
-930
-921
-905
-886
-872
-856
-845
-826
-811
-796
-788
-783
-771
-761
-755
-751
-747
-737
-730
-722
-721
-720
-710
-703
-696
-694
-686
-674
-664
-654
-648
-640
-627
-616
-606
-602
-593
-584
-576
-570
-574
-571
-562
-562
-558
-563
-558
-556
-552
-551
-555
-552
-544
-545
-540
-546
-537
-535
-531
-532
-537
-535
-530
-529
-528
-531
-526
-526
-526
-533
-543
-546
-551
-559
-568
-578
-579
-584
-588
-600
-611
-614
-619
-623
-632
-633
-630
-628
-624
-624
-622
-614
-608
-601
-601
-592
-585
-579
-576
-583
-584
-580
-585
-587
-598
-600
-604
-607
-613
-624
-627
-622
-625
-623
-629
-619
-613
-605
-599
-596
-585
-572
-562
-550
-540
-519
-501
-480
-460
-437
-398
-352
-298
-236
-159
-62
45
161
276
396
528
657
787
908
1029
1145
1251
1345
1427
1503
1577
1638
1691
1723
1755
1774
1783
1781
1763
1741
1715
1673
1625
1560
1494
1414
1323
1213
1079
932
770
577
368
130
-114
-381
-662
-958
-1267
-1579
-1900
-2235
-2580
-2936
-3285
-3637
-3984
-4334
-4686
-5032
-5382
-5740
-6107
-6482
-6857
-7236
-7611
-7982
-8330
-8641
-8923
-9170
-9388
-9570
-9721
-9850
-9960
-10063
-10158
-10248
-10349
-10460
-10599
-10743
-10901
-11065
-11236
-11413
-11577
-11717
-11836
-11917
-11960
-11945
-11883
-11770
-11612
-11415
-11169
-10881
-10570
-10227
-9864
-9467
-9053
-8622
-8182
-7736
-7278
-6816
-6355
-5895
-5443
-4986
-4540
-4100
-3673
-3256
-2841
-2437
-2046
-1671
-1306
-948
-606
-278
29
325
615
888
1149
1391
1624
1847
2055
2249
2425
2590
2750
2893
3031
3148
3271
3384
3490
3587
3673
3759
3846
3924
4001
4068
4141
4206
4269
4323
4365
4411
4457
4490
4522
4544
4571
4590
4606
4613
4614
4618
4619
4614
4606
4594
4589
4581
4575
4563
4552
4550
4547
4544
4540
4539
4545
4550
4556
4556
4558
4567
4570
4572
4566
4562
4557
4548
4534
4512
4490
4474
4447
4424
4387
4361
4330
4298
4263
4222
4187
4157
4125
4098
4064
4044
4023
4005
3985
3960
3944
3934
3918
3906
3889
3880
3868
3855
3835
3812
3793
3775
3750
3724
3694
3671
3643
3615
3581
3546
3519
3490
3460
3427
3399
3377
3354
3333
3306
3283
3269
3253
3238
3219
3204
3193
3180
3167
3148
3133
3125
3107
3093
3067
3053
3035
3016
2993
2965
2942
2923
2900
2881
2853
2840
2822
2807
2789
2766
2752
2742
2729
2718
2704
2699
2693
2687
2676
2662
2655
2647
2634
2619
2600
2589
2573
2557
2533
2508
2490
2468
2444
2415
2390
2370
2349
2326
2297
2269
2247
2221
2196
2165
2136
2111
2084
2055
2019
1988
1964
1933
1906
1868
1843
1816
1789
1759
1727
1700
1679
1653
1633
1606
1594
1577
1564
1549
1530
1520
1515
1507
1501
1493
1494
1492
1491
1485
1475
1473
1471
1466
1459
1451
1450
1446
1442
1432
1421
1419
1417
1414
1409
1409
1415
1419
1426
1427
1429
1438
1445
1452
1456
1463
1473
1483
1490
1490
1494
1504
1505
1510
1505
1510
1513
1517
1519
1518
1522
1532
1537
1547
1548
1565
1578
1592
1604
1612
1629
1648
1664
1679
1691
1711
1726
1741
1750
1756
1769
1781
1789
1796
1801
1814
1823
1832
1835
1837
1849
1858
1869
1876
1889
1906
1921
1936
1946
1957
1973
1988
2004
2015
2033
2052
2070
2086
2092
2103
2121
2128
2139
2139
2149
2156
2164
2168
2166
2171
2181
2183
2190
2186
2199
2206
2216
2223
2225
2234
2245
2251
2257
2259
2269
2275
2280
2277
2271
2272
2272
2268
2261
2251
2247
2238
2227
2209
2190
2179
2164
2149
2129
2114
2103
2091
2078
2060
2044
2035
2024
2014
1998
1990
1980
1971
1957
1934
1916
1904
1885
1868
1843
1827
1809
1791
1771
1744
1724
1710
1687
1670
1642
1630
1613
1598
1578
1556
1540
1524
1505
1486
1463
1448
1429
1409
1384
1356
1334
1309
1279
1244
1208
1177
1141
1103
1058
1013
974
931
889
840
797
756
712
667
618
571
530
485
443
392
350
306
262
214
158
106
60
7
-43
-101
-150
-201
-252
-306
-367
-422
-470
-528
-580
-641
-688
-739
-789
-843
-899
-947
-994
-1044
-1093
-1146
-1189
-1236
-1280
-1330
-1382
-1425
-1469
-1516
-1566
-1615
-1658
-1704
-1749
-1800
-1849
-1888
-1931
-1971
-2017
-2056
-2091
-2127
-2162
-2201
-2238
-2267
-2300
-2330
-2368
-2394
-2423
-2450
-2479
-2515
-2544
-2566
-2592
-2613
-2640
-2655
-2671
-2685
-2702
-2723
-2734
-2737
-2749
-2754
-2766
-2765
-2767
-2767
-2772
-2778
-2779
-2779
-2783
-2787
-2795
-2793
-2796
-2798
-2808
-2821
-2826
-2832
-2841
-2854
-2866
-2872
-2879
-2887
-2900
-2911
-2912
-2916
-2919
-2927
-2929
-2928
-2928
-2927
-2930
-2929
-2920
-2915
-2907
-2909
-2899
-2892
-2884
-2879
-2879
-2873
-2861
-2853
-2842
-2837
-2821
-2808
-2793
-2779
-2772
-2755
-2730
-2713
-2689
-2672
-2641
-2614
-2585
-2560
-2538
-2510
-2480
-2454
-2428
-2407
-2376
-2349
-2322
-2302
-2284
-2259
-2235
-2213
-2194
-2173
-2147
-2121
-2095
-2075
-2053
-2022
-1994
-1966
-1941
-1912
-1878
-1844
-1811
-1783
-1752
-1715
-1685
-1651
-1629
-1594
-1563
-1532
-1505
-1484
-1459
-1430
-1407
-1381
-1363
-1335
-1310
-1283
-1259
-1240
-1212
-1178
-1150
-1119
-1094
-1057
-1024
-990
-961
-936
-904
-872
-844
-818
-795
-764
-738
-712
-694
-677
-655
-634
-615
-600
-584
-563
-546
-530
-522
-513
-498
-488
-477
-472
-465
-454
-444
-436
-435
-432
-421
-419
-413
-418
-411
-406
-401
-399
-401
-398
-389
-384
-375
-374
-359
-348
-334
-323
-317
-302
-283
-270
-257
-249
-233
-220
-207
-199
-193
-181
-169
-162
-156
-154
-144
-140
-136
-138
-142
-137
-135
-134
-136
-135
-128
-124
-121
-125
-128
-123
-121
-119
-121
-121
-118
-115
-115
-122
-126
-123
-129
-130
-142
-141
-142
-143
-146
-154
-158
-156
-159
-159
-167
-160
-159
-154
-153
-155
-150
-142
-139
-135
-136
-130
-127
-124
-127
-132
-131
-131
-135
-141
-150
-152
-158
-164
-177
-190
-193
-198
-202
-210
-212
-209
-209
-208
-214
-218
-213
-212
-210
-211
-209
-205
-202
-201
-209
-212
-208
-213
-216
-229
-229
-232
-234
-239
-249
-253
-252
-256
-255
-263
-255
-251
-245
-242
-244
-239
-230
-226
-222
-222
-214
-210
-205
-207
-212
-209
-207
-209
-213
-219
-218
-221
-224
-233
-242
-242
-244
-247
-255
-258
-256
-256
-256
-262
-265
-262
-260
-258
-261
-259
-257
-256
-258
-268
-273
-270
-275
-276
-287
-286
-289
-292
-299
-310
-315
-315
-322
-324
-336
-332
-332
-331
-334
-341
-342
-341
-344
-347
-354
-353
-356
-359
-367
-379
-384
-390
-400
-412
-425
-430
-439
-447
-461
-475
-481
-490
-498
-513
-522
-527
-534
-540
-551
-559
-560
-563
-565
-573
-575
-578
-581
-587
-601
-610
-611
-620
-626
-641
-646
-653
-658
-666
-678
-684
-683
-688
-686
-692
-681
-675
-665
-660
-658
-649
-637
-627
-616
-608
-591
-576
-559
-548
-541
-526
-512
-502
-493
-485
-469
-455
-441
-433
-424
-406
-392
-377
-368
-354
-336
-320
-303
-292
-280
-262
-249
-236
-230
-217
-206
-195
-187
-188
-183
-171
-166
-157
-155
-144
-134
-123
-115
-111
-99
-80
-69
-52
-44
-21
-4
15
29
40
58
77
93
108
119
138
152
165
171
173
182
189
192
192
192
198
202
205
200
197
202
204
208
207
212
221
229
238
242
249
261
270
281
282
293
302
310
316
312
313
318
315
313
303
302
299
296
289
278
274
277
272
273
265
271
275
279
281
283
292
302
310
318
322
334
342
348
348
345
349
351
349
343
337
337
333
328
316
304
301
295
290
282
279
281
283
286
285
286
293
297
304
302
311
318
324
328
324
324
329
327
327
318
318
314
311
305
293
288
290
282
279
268
270
268
267
263
257
258
262
262
263
260
266
268
269
264
256
256
254
249
241
234
231
224
216
201
188
184
176
170
159
152
150
146
142
133
126
126
121
120
109
111
110
110
106
95
88
85
75
68
53
50
43
38
29
13
5
3
-8
-15
-28
-31
-36
-40
-48
-57
-59
-60
-65
-70
-79
-79
-85
-91
-103
-117
-124
-132
-142
-156
-168
-176
-188
-200
-219
-235
-243
-253
-262
-274
-281
-284
-288
-292
-301
-308
-306
-311
-310
-321
-318
-319
-319
-322
-331
-336
-336
-340
-340
-348
-344
-343
-340
-339
-345
-342
-333
-331
-326
-326
-317
-309
-301
-297
-296
-288
-280
-277
-275
-278
-273
-272
-272
-277
-284
-283
-284
-287
-293
-296
-294
-293
-292
-296
-297
-289
-284
-278
-276
-271
-263
-256
-251
-253
-251
-242
-240
-234
-240
-232
-228
-224
-223
-228
-228
-223
-224
-220
-225
-216
-211
-205
-202
-205
-199
-190
-186
-180
-179
-169
-161
-151
-146
-143
-133
-123
-118
-114
-112
-101
-94
-86
-83
-81
-70
-61
-54
-50
-43
-31
-23
-14
-12
-9
2
9
16
18
23
31
38
42
41
44
56
59
67
64
74
81
87
90
88
92
101
104
111
108
119
125
133
136
134
140
150
157
165
171
185
197
210
217
222
235
250
262
274
286
309
331
358
384
416
465
521
588
662
754
862
980
1106
1234
1368
1510
1647
1780
1902
2020
2128
2226
2312
2382
2447
2510
2557
2601
2628
2657
2674
2682
2682
2674
2670
2669
2659
2650
2624
2605
2571
2530
2477
2413
2351
2283
2200
2105
1989
1864
1718
1556
1373
1169
956
726
477
212
-69
-356
-661
-980
-1320
-1675
-2034
-2407
-2792
-3198
-3612
-4033
-4462
-4895
-5333
-5762
-6171
-6567
-6942
-7300
-7632
-7943
-8241
-8530
-8820
-9096
-9357
-9620
-9872
-10124
-10359
-10591
-10816
-11033
-11241
-11424
-11579
-11716
-11821
-11907
-11947
-11961
-11943
-11898
-11827
-11720
-11584
-11425
-11240
-11032
-10790
-10526
-10235
-9923
-9588
-9225
-8845
-8454
-8054
-7648
-7229
-6810
-6390
-5975
-5564
-5148
-4742
-4343
-3958
-3576
-3201
-2838
-2486
-2151
-1827
-1509
-1207
-916
-643
-375
-119
124
354
564
769
970
1153
1331
1491
1652
1803
1948
2084
2209
2335
2461
2574
2688
2787
2897
2997
3095
3185
3268
3352
3432
3505
3572
3629
3689
3740
3786
3823
3852
3884
3911
3931
3945
3955
3969
3977
3982
3977
3972
3974
3971
3970
3964
3963
3966
3967
3969
3966
3964
3968
3969
3971
3965
3968
3969
3968
3963
3948
3936
3928
3911
3894
3868
3849
3827
3804
3778
3745
3718
3697
3667
3642
3607
3589
3566
3547
3526
3504
3492
3482
3471
3462
3450
3449
3444
3440
3431
3419
3414
3407
3396
3381
3365
3352
3334
3314
3286
3258
3236
3210
3184
3153
3127
3104
3081
3059
3034
3011
2996
2980
2967
2949
2943
2936
2931
2925
2911
2901
2897
2886
2878
2861
2853
2841
2829
2813
2789
2771
2759
2736
2716
2688
2673
2653
2635
2614
2591
2575
2560
2543
2527
2508
2500
2490
2481
2469
2455
2451
2445
2438
2426
2416
2411
2403
2394
2379
2365
2360
2350
2340
2324
2313
2305
2296
2286
2271
2260
2257
2249
2246
2233
2232
2229
2227
2224
2215
2212
2216
2215
2217
2214
2220
2223
2228
2228
2220
2220
2224
2220
2219
2211
2214
2214
2215
2211
2206
2207
2210
2211
2212
2211
2221
2228
2235
2237
2237
2245
2251
2255
2257
2259
2266
2271
2275
2272
2271
2278
2280
2283
2280
2282
2286
2288
2290
2286
2285
2290
2290
2294
2287
2293
2295
2299
2299
2293
2292
2296
2295
2296
2290
2294
2295
2298
2296
2287
2287
2294
2292
2295
2292
2301
2306
2311
2312
2310
2316
2322
2324
2326
2325
2334
2339
2344
2342
2339
2342
2344
2342
2336
2333
2335
2334
2333
2326
2322
2325
2323
2322
2315
2313
2314
2314
2314
2308
2307
2313
2313
2319
2315
2325
2332
2340
2346
2346
2352
2362
2368
2377
2376
2387
2394
2401
2404
2401
2405
2414
2416
2421
2420
2429
2434
2439
2439
2436
2440
2446
2449
2451
2451
2460
2466
2472
2471
2470
2476
2480
2483
2482
2483
2489
2493
2496
2491
2487
2490
2487
2483
2473
2465
2459
2451
2441
2424
2409
2402
2385
2373
2349
2337
2322
2306
2287
2262
2243
2228
2209
2193
2168
2157
2140
2124
2103
2076
2056
2039
2016
1993
1963
1940
1912
1883
1846
1807
1773
1739
1701
1662
1621
1589
1554
1517
1475
1430
1394
1356
1316
1273
1234
1200
1164
1128
1085
1042
1006
965
923
875
830
788
743
696
640
587
541
485
432
366
311
253
196
136
73
14
-40
-99
-153
-216
-263
-315
-365
-417
-474
-523
-568
-619
-670
-725
-773
-824
-877
-935
-996
-1051
-1106
-1165
-1225
-1287
-1341
-1399
-1456
-1520
-1584
-1638
-1693
-1746
-1802
-1852
-1896
-1941
-1985
-2034
-2080
-2118
-2157
-2193
-2232
-2265
-2294
-2324
-2356
-2396
-2431
-2458
-2495
-2526
-2567
-2595
-2626
-2656
-2686
-2721
-2749
-2772
-2800
-2822
-2853
-2867
-2885
-2900
-2917
-2936
-2946
-2953
-2963
-2971
-2983
-2987
-2994
-2999
-3010
-3022
-3027
-3031
-3039
-3048
-3058
-3061
-3067
-3073
-3083
-3093
-3094
-3096
-3098
-3103
-3102
-3096
-3092
-3087
-3087
-3085
-3076
-3068
-3059
-3054
-3042
-3030
-3017
-3007
-3005
-2998
-2983
-2976
-2964
-2962
-2948
-2937
-2924
-2914
-2907
-2895
-2876
-2865
-2847
-2838
-2813
-2792
-2769
-2748
-2730
-2705
-2677
-2652
-2627
-2606
-2577
-2551
-2524
-2504
-2485
-2459
-2433
-2412
-2394
-2377
-2355
-2336
-2318
-2306
-2295
-2274
-2257
-2240
-2228
-2211
-2190
-2170
-2151
-2137
-2120
-2097
-2076
-2054
-2038
-2015
-1993
-1971
-1953
-1944
-1929
-1906
-1891
-1872
-1861
-1841
-1822
-1803
-1787
-1775
-1756
-1731
-1714
-1689
-1674
-1643
-1618
-1591
-1569
-1549
-1523
-1496
-1473
-1450
-1431
-1403
-1380
-1357
-1340
-1327
-1307
-1289
-1275
-1264
-1255
-1239
-1226
-1214
-1209
-1203
-1189
-1177
-1165
-1159
-1147
-1132
-1119
-1105
-1095
-1083
-1064
-1047
-1030
-1021
-1004
-989
-976
-966
-966
-961
-952
-950
-947
-953
-951
-953
-955
-961
-974
-981
-982
-992
-995
-1008
-1007
-1011
-1012
-1018
-1026
-1029
-1029
-1033
-1035
-1040
-1037
-1038
-1039
-1046
-1056
-1060
-1065
-1074
-1086
-1098
-1103
-1112
-1120
-1135
-1149
-1153
-1161
-1166
-1176
-1180
-1179
-1178
-1176
-1176
-1173
-1162
-1153
-1141
-1137
-1122
-1108
-1094
-1083
-1080
-1072
-1059
-1051
-1040
-1037
-1026
-1018
-1009
-1005
-1007
-1002
-991
-988
-980
-979
-965
-954
-942
-933
-926
-911
-895
-881
-867
-855
-834
-817
-800
-789
-780
-764
-750
-738
-731
-723
-708
-697
-686
-682
-677
-664
-655
-646
-642
-632
-619
-606
-593
-585
-573
-554
-539
-521
-513
-492
-475
-457
-440
-431
-416
-397
-384
-368
-361
-344
-331
-318
-308
-306
-295
-278
-270
-257
-252
-236
-223
-210
-202
-195
-182
-167
-156
-143
-134
-116
-103
-90
-84
-79
-67
-57
-49
-45
-39
-29
-22
-15
-16
-15
-7
-3
1
1
6
14
21
27
28
31
41
44
50
46
54
59
64
66
63
64
69
69
71
65
69
71
74
74
68
70
79
80
85
84
93
100
108
112
113
122
131
137
142
144
154
158
162
159
154
158
159
160
156
154
158
160
160
154
150
154
155
158
157
161
170
177
183
183
186
196
199
206
202
212
220
227
231
230
233
240
241
244
238
245
248
254
256
251
255
261
261
263
259
263
262
261
255
247
246
246
241
235
226
225
220
215
205
195
193
189
185
178
173
174
174
173
168
165
171
175
179
181
186
196
205
214
216
224
239
247
260
262
278
290
302
310
313
319
329
332
338
333
343
347
352
355
352
357
365
368
373
375
385
392
401
404
405
412
419
421
421
417
421
421
420
413
405
405
403
399
391
386
385
381
376
364
353
349
341
332
318
307
297
284
270
247
228
218
200
188
166
156
144
133
119
101
88
80
67
60
44
43
37
32
23
9
3
-2
-11
-19
-31
-33
-38
-43
-52
-63
-67
-70
-77
-85
-95
-96
-99
-101
-109
-116
-113
-113
-113
-118
-118
-114
-111
-109
-112
-113
-107
-103
-100
-102
-100
-97
-95
-95
-103
-106
-99
-101
-99
-106
-102
-101
-100
-101
-105
-104
-98
-96
-89
-91
-77
-69
-59
-52
-50
-40
-29
-23
-15
-12
0
9
18
20
19
24
28
28
25
21
25
25
25
18
12
13
12
11
5
6
10
13
18
18
21
31
38
47
50
58
65
72
75
71
72
80
80
82
75
77
76
75
70
60
57
60
57
60
53
61
64
69
70
70
76
86
92
99
103
116
125
135
138
138
145
150
152
151
149
153
153
153
145
136
134
129
124
114
111
111
112
113
111
110
116
120
124
122
128
133
138
141
136
135
141
139
138
128
126
122
118
110
97
92
92
84
81
68
71
69
69
65
60
62
65
66
66
64
70
71
72
66
58
57
57
53
46
40
40
37
33
22
11
8
1
-4
-14
-19
-20
-22
-23
-27
-30
-26
-24
-20
-24
-18
-13
-7
-3
-8
-8
-2
-3
-3
-10
-9
-12
-14
-21
-33
-38
-37
-44
-47
-59
-57
-59
-58
-62
-67
-65
-62
-61
-61
-64
-60
-59
-59
-65
-74
-74
-76
-80
-88
-96
-98
-103
-109
-123
-135
-140
-148
-155
-166
-172
-176
-180
-185
-195
-202
-203
-208
-210
-220
-218
-217
-216
-218
-228
-232
-232
-238
-241
-251
-252
-255
-257
-263
-274
-277
-275
-281
-284
-295
-294
-297
-298
-303
-310
-310
-310
-313
-315
-320
-316
-317
-319
-326
-336
-338
-341
-347
-357
-366
-372
-380
-389
-406
-420
-425
-434
-440
-450
-454
-453
-453
-452
-456
-456
-449
-446
-438
-440
-427
-417
-406
-398
-397
-392
-381
-375
-366
-365
-352
-342
-329
-320
-317
-306
-289
-279
-266
-258
-240
-225
-208
-195
-184
-167
-150
-136
-124
-116
-99
-88
-78
-74
-72
-64
-58
-54
-56
-57
-54
-55
-56
-64
-71
-69
-70
-70
-74
-72
-66
-60
-54
-52
-47
-34
-27
-14
-12
4
16
27
36
39
45
56
61
69
69
81
88
96
99
96
101
111
114
119
120
130
139
148
153
155
164
173
178
182
182
190
195
200
201
200
208
214
218
218
221
229
234
239
237
237
245
249
254
254
256
261
265
267
264
264
272
273
278
272
278
281
283
283
278
278
284
286
292
289
300
305
312
314
310
314
323
327
332
333
341
347
352
352
348
350
352
349
345
338
338
336
333
325
316
316
314
311
305
304
308
310
313
309
308
315
318
321
319
320
323
325
324
316
311
314
306
303
288
286
280
273
265
252
246
245
240
240
231
237
238
242
243
240
245
252
255
259
259
267
269
271
266
258
255
252
244
235
222
217
207
197
180
161
150
137
122
105
93
86
80
74
63
56
57
56
56
50
49
50
51
50
41
37
40
33
30
15
12
5
-2
-12
-28
-40
-45
-57
-64
-81
-82
-88
-93
-100
-110
-111
-109
-110
-110
-113
-109
-108
-108
-112
-121
-123
-125
-132
-141
-152
-157
-167
-178
-196
-215
-226
-240
-254
-272
-284
-291
-298
-305
-317
-327
-329
-332
-334
-340
-340
-336
-331
-327
-329
-325
-314
-310
-302
-302
-290
-280
-267
-254
-242
-221
-191
-161
-118
-77
-9
65
154
252
358
481
614
747
883
1014
1149
1276
1395
1499
1590
1679
1759
1826
1882
1930
1979
2016
2044
2056
2062
2071
2074
2076
2071
2071
2070
2062
2048
2020
1987
1952
1911
1866
1808
1747
1671
1579
1467
1329
1179
1017
829
627
400
166
-86
-354
-640
-948
-1266
-1594
-1945
-2305
-2688
-3067
-3467
-3881
-4310
-4749
-5187
-5623
-6056
-6476
-6884
-7261
-7618
-7951
-8267
-8569
-8850
-9121
-9387
-9648
-9902
-10140
-10371
-10593
-10815
-11031
-11229
-11415
-11579
-11726
-11842
-11926
-11982
-12007
-12006
-11973
-11904
-11808
-11682
-11538
-11360
-11159
-10933
-10686
-10424
-10130
-9805
-9463
-9097
-8719
-8317
-7905
-7483
-7057
-6632
-6197
-5755
-5325
-4894
-4480
-4060
-3652
-3251
-2864
-2489
-2119
-1758
-1413
-1080
-763
-450
-154
130
394
644
890
1123
1342
1547
1741
1933
2112
2284
2440
2591
2744
2888
3027
3154
3282
3407
3526
3639
3743
3843
3943
4035
4124
4198
4278
4348
4413
4468
4510
4551
4593
4623
4650
4664
4682
4694
4703
4706
4699
4698
4701
4694
4692
4682
4687
4688
4691
4692
4690
4695
4702
4706
4712
4714
4726
4733
4740
4740
4736
4738
4736
4729
4715
4699
4687
4669
4648
4619
4589
4566
4537
4508
4473
4442
4415
4386
4356
4323
4293
4271
4246
4225
4196
4179
4159
4140
4118
4090
4067
4049
4025
4003
3972
3949
3922
3894
3862
3820
3786
3756
3718
3683
3641
3610
3577
3545
3510
3474
3445
3418
3389
3363
3335
3318
3298
3280
3256
3231
3214
3196
3176
3153
3131
3113
3092
3069
3039
3008
2985
2954
2924
2886
2850
2816
2780
2743
2701
2661
2629
2591
2558
2514
2484
2452
2420
2387
2349
2316
2289
2259
2231
2197
2174
2148
2124
2095
2061
2035
2015
1987
1962
1930
1908
1882
1857
1827
1796
1773
1751
1727
1704
1680
1668
1652
1638
1619
1600
1590
1580
1569
1556
1546
1542
1536
1529
1516
1504
1500
1490
1481
1467
1455
1448
1439
1429
1414
1402
1398
1386
1380
1362
1358
1351
1345
1337
1324
1317
1314
1307
1304
1293
1295
1294
1294
1291
1283
1283
1288
1287
1288
1284
1289
1290
1292
1289
1284
1287
1291
1291
1291
1289
1296
1300
1305
1305
1304
1311
1318
1324
1328
1336
1349
1361
1374
1380
1388
1405
1417
1431
1441
1455
1473
1491
1506
1516
1529
1550
1562
1579
1585
1606
1623
1642
1660
1673
1691
1713
1730
1750
1760
1783
1802
1822
1838
1849
1867
1889
1905
1921
1933
1952
1969
1986
1997
2006
2023
2041
2055
2068
2079
2098
2114
2130
2140
2150
2168
2184
2200
2211
2226
2246
2263
2279
2288
2298
2316
2330
2345
2355
2369
2385
2402
2416
2423
2434
2453
2462
2475
2479
2495
2509
2524
2536
2543
2555
2572
2582
2596
2601
2620
2633
2648
2658
2663
2673
2686
2692
2698
2700
2708
2712
2716
2715
2712
2716
2719
2718
2715
2709
2710
2707
2704
2696
2687
2688
2687
2686
2680
2678
2680
2680
2678
2669
2662
2661
2656
2652
2642
2635
2629
2619
2607
2586
2569
2559
2541
2526
2502
2488
2471
2454
2434
2408
2387
2371
2347
2329
2299
2285
2265
2245
2220
2190
2165
2141
2110
2079
2042
2011
1975
1939
1894
1844
1800
1754
1703
1648
1589
1535
1477
1419
1353
1287
1230
1169
1108
1042
980
923
863
802
733
666
605
540
474
400
331
260
187
111
25
-56
-130
-212
-291
-379
-456
-535
-613
-694
-778
-855
-924
-999
-1066
-1141
-1199
-1259
-1316
-1376
-1438
-1493
-1545
-1601
-1655
-1712
-1761
-1812
-1863
-1918
-1977
-2029
-2082
-2139
-2199
-2260
-2315
-2374
-2434
-2500
-2565
-2622
-2681
-2739
-2802
-2857
-2908
-2959
-3008
-3060
-3109
-3150
-3192
-3231
-3275
-3310
-3345
-3378
-3413
-3455
-3488
-3513
-3544
-3571
-3605
-3629
-3654
-3677
-3703
-3732
-3753
-3766
-3786
-3799
-3821
-3826
-3834
-3841
-3851
-3863
-3868
-3870
-3874
-3876
-3881
-3875
-3873
-3869
-3870
-3874
-3869
-3863
-3860
-3858
-3855
-3844
-3835
-3826
-3823
-3818
-3803
-3792
-3779
-3771
-3756
-3738
-3721
-3702
-3687
-3669
-3646
-3626
-3605
-3590
-3565
-3540
-3515
-3492
-3477
-3456
-3429
-3408
-3384
-3368
-3342
-3318
-3292
-3269
-3252
-3227
-3196
-3173
-3143
-3124
-3090
-3061
-3033
-3009
-2989
-2962
-2935
-2912
-2889
-2870
-2843
-2820
-2798
-2782
-2769
-2749
-2728
-2711
-2695
-2679
-2656
-2634
-2612
-2595
-2578
-2550
-2526
-2500
-2478
-2450
-2418
-2387
-2356
-2328
-2299
-2264
-2234
-2201
-2179
-2146
-2116
-2085
-2056
-2035
-2009
-1977
-1951
-1922
-1901
-1870
-1842
-1812
-1785
-1764
-1734
-1698
-1671
-1638
-1614
-1577
-1544
-1511
-1483
-1456
-1423
-1388
-1358
-1328
-1302
-1269
-1241
-1214
-1195
-1178
-1153
-1131
-1112
-1096
-1079
-1056
-1036
-1015
-1002
-986
-963
-943
-921
-905
-883
-858
-834
-810
-791
-771
-744
-723
-700
-687
-663
-643
-623
-607
-599
-587
-572
-564
-554
-553
-542
-535
-526
-519
-519
-510
-495
-488
-476
-471
-455
-443
-430
-420
-413
-398
-383
-371
-358
-350
-333
-321
-309
-304
-300
-290
-281
-274
-271
-266
-255
-247
-238
-236
-233
-221
-214
-205
-201
-192
-181
-170
-161
-157
-149
-135
-127
-114
-112
-98
-88
-77
-69
-68
-64
-56
-54
-50
-54
-46
-42
-36
-34
-38
-34
-25
-24
-21
-22
-14
-8
-1
2
4
12
21
26
30
32
41
46
51
50
47
52
56
58
56
55
60
62
63
59
57
63
66
71
70
74
81
86
90
87
87
94
94
97
90
96
97
99
98
91
88
89
84
83
73
75
72
71
64
49
42
38
26
15
-3
-14
-29
-45
-66
-90
-106
-122
-143
-163
-187
-201
-218
-235
-258
-283
-299
-318
-339
-363
-385
-402
-421
-440
-465
-487
-501
-516
-532
-551
-566
-577
-588
-599
-616
-628
-630
-640
-645
-660
-662
-668
-673
-680
-691
-697
-697
-702
-702
-709
-701
-697
-689
-684
-685
-678
-666
-659
-649
-642
-627
-613
-599
-591
-586
-574
-563
-557
-553
-552
-544
-539
-535
-537
-539
-534
-530
-527
-528
-525
-517
-511
-503
-501
-496
-484
-474
-463
-457
-448
-437
-425
-416
-413
-406
-390
-383
-373
-373
-362
-354
-347
-343
-344
-339
-329
-324
-314
-313
-296
-284
-269
-258
-251
-237
-220
-206
-191
-180
-160
-144
-129
-120
-114
-101
-89
-81
-75
-71
-60
-53
-46
-46
-47
-40
-37
-34
-36
-33
-25
-19
-13
-12
-8
2
10
18
22
30
40
50
59
60
67
81
86
95
93
102
107
112
115
114
118
129
134
144
143
159
168
179
186
189
200
212
222
234
241
256
267
278
283
284
292
299
302
304
305
313
317
320
316
313
317
318
318
313
314
319
323
327
325
324
330
332
335
333
336
340
344
346
340
338
342
337
334
321
316
309
302
291
276
267
264
253
248
233
234
229
226
219
209
207
207
204
200
193
194
191
188
179
167
163
159
152
143
134
133
127
122
110
99
97
93
90
82
81
84
87
90
88
88
94
97
101
99
106
111
117
121
115
114
119
116
116
107
107
105
104
100
90
86
88
81
80
68
73
72
73
72
68
72
78
80
84
84
92
97
101
99
95
97
99
98
93
87
86
81
74
60
46
40
31
22
9
1
-3
-7
-11
-19
-25
-24
-26
-25
-32
-26
-23
-18
-16
-21
-21
-15
-15
-11
-14
-4
8
29
53
81
127
191
259
347
439
554
673
796
918
1037
1160
1279
1386
1483
1565
1644
1706
1758
1796
1824
1850
1865
1867
1859
1844
1831
1812
1790
1759
1726
1697
1660
1616
1561
1507
1452
1389
1316
1225
1120
1004
867
715
534
347
140
-82
-323
-586
-859
-1139
-1439
-1748
-2077
-2409
-2756
-3109
-3473
-3850
-4226
-4607
-5008
-5414
-5836
-6251
-6672
-7087
-7495
-7884
-8243
-8573
-8879
-9160
-9421
-9652
-9870
-10072
-10266
-10449
-10612
-10766
-10916
-11068
-11218
-11360
-11499
-11625
-11741
-11836
-11897
-11937
-11949
-11938
-11893
-11815
-11709
-11576
-11421
-11236
-11017
-10779
-10513
-10234
-9922
-9591
-9240
-8873
-8495
-8097
-7684
-7266
-6840
-6418
-5985
-5556
-5128
-4710
-4306
-3901
-3499
-3115
-2739
-2380
-2021
-1678
-1347
-1033
-736
-446
-169
90
338
569
798
1011
1214
1402
1579
1756
1923
2080
2228
2372
2515
2652
2784
2905
3024
3148
3263
3375
3478
3580
3679
3771
3856
3930
4001
4073
4132
4189
4228
4274
4310
4341
4363
4376
4389
4402
4407
4413
4409
4415
4417
4421
4420
4414
4417
4427
4431
4440
4445
4460
4473
4487
4497
4504
4518
4532
4540
4546
4548
4557
4558
4558
4549
4536
4528
4514
4496
4472
4449
4431
4408
4385
4355
4327
4308
4286
4266
4243
4225
4212
4199
4187
4170
4158
4155
4144
4139
4121
4116
4106
4095
4080
4059
4042
4028
4007
3988
3958
3939
3913
3889
3859
3822
3792
3767
3737
3709
3677
3655
3631
3609
3583
3556
3536
3518
3498
3479
3458
3446
3430
3414
3390
3364
3345
3323
3298
3268
3240
3214
3185
3155
3116
3079
3048
3013
2979
2940
2906
2876
2848
2819
2784
2756
2737
2711
2690
2660
2644
2627
2610
2591
2569
2551
2538
2518
2502
2475
2461
2441
2421
2397
2366
2343
2323
2298
2274
2246
2226
2203
2182
2157
2131
2115
2101
2087
2073
2059
2055
2048
2042
2032
2022
2021
2019
2016
2010
2008
2009
2008
2005
1995
1985
1979
1968
1956
1939
1924
1911
1897
1880
1856
1837
1826
1807
1793
1770
1759
1746
1735
1723
1706
1696
1691
1680
1675
1660
1662
1659
1659
1655
1647
1647
1650
1649
1647
1641
1643
1641
1640
1634
1625
1625
1626
1624
1620
1616
1621
1623
1627
1625
1624
1631
1637
1645
1647
1654
1666
1676
1684
1687
1691
1702
1711
1719
1723
1734
1746
1758
1768
1771
1779
1795
1802
1815
1820
1836
1850
1865
1878
1886
1900
1920
1932
1950
1957
1980
1998
2017
2032
2044
2063
2084
2100
2116
2129
2150
2167
2185
2197
2207
2225
2242
2256
2268
2280
2299
2314
2329
2338
2348
2367
2382
2397
2407
2422
2439
2455
2470
2480
2490
2507
2521
2536
2544
2559
2573
2586
2595
2596
2602
2614
2617
2624
2623
2631
2637
2644
2647
2645
2647
2654
2653
2657
2651
2660
2663
2667
2666
2660
2661
2662
2658
2654
2645
2644
2640
2636
2627
2615
2610
2604
2595
2583
2571
2566
2558
2550
2536
2523
2517
2508
2498
2482
2470
2460
2448
2434
2415
2396
2382
2364
2347
2321
2304
2286
2268
2247
2218
2194
2176
2151
2129
2099
2077
2052
2027
1999
1964
1934
1910
1875
1845
1803
1775
1741
1705
1664
1618
1575
1532
1483
1433
1379
1332
1280
1228
1169
1107
1052
995
934
870
807
751
694
637
573
511
458
400
344
280
221
164
105
44
-22
-87
-147
-211
-273
-345
-408
-473
-539
-608
-684
-754
-816
-884
-947
-1016
-1075
-1135
-1193
-1254
-1319
-1376
-1426
-1483
-1535
-1594
-1640
-1691
-1740
-1793
-1849
-1898
-1948
-2001
-2053
-2110
-2157
-2208
-2259
-2317
-2377
-2429
-2482
-2536
-2591
-2644
-2689
-2736
-2782
-2833
-2882
-2921
-2964
-3006
-3052
-3093
-3130
-3168
-3205
-3247
-3286
-3318
-3354
-3387
-3429
-3458
-3489
-3517
-3546
-3581
-3608
-3630
-3655
-3675
-3701
-3716
-3732
-3744
-3759
-3777
-3786
-3786
-3791
-3790
-3795
-3787
-3781
-3773
-3769
-3766
-3757
-3745
-3736
-3726
-3719
-3703
-3691
-3679
-3672
-3667
-3653
-3640
-3629
-3619
-3607
-3587
-3568
-3548
-3535
-3519
-3495
-3473
-3450
-3431
-3407
-3379
-3353
-3327
-3306
-3284
-3255
-3232
-3206
-3192
-3166
-3144
-3123
-3105
-3092
-3075
-3053
-3037
-3018
-3007
-2985
-2967
-2949
-2935
-2927
-2910
-2887
-2871
-2851
-2839
-2816
-2797
-2778
-2763
-2750
-2729
-2707
-2687
-2666
-2648
-2621
-2598
-2575
-2557
-2540
-2514
-2488
-2465
-2443
-2420
-2390
-2363
-2337
-2318
-2297
-2268
-2244
-2218
-2196
-2171
-2142
-2115
-2090
-2070
-2049
-2021
-2002
-1978
-1966
-1940
-1919
-1896
-1875
-1859
-1838
-1813
-1792
-1768
-1751
-1722
-1696
-1666
-1640
-1619
-1590
-1556
-1528
-1499
-1475
-1443
-1415
-1386
-1361
-1339
-1310
-1281
-1256
-1233
-1213
-1186
-1163
-1140
-1124
-1109
-1087
-1067
-1049
-1035
-1019
-998
-979
-961
-949
-935
-913
-895
-876
-861
-842
-819
-797
-777
-764
-747
-723
-707
-688
-679
-659
-643
-628
-617
-610
-600
-586
-578
-566
-564
-546
-533
-517
-504
-496
-479
-459
-443
-425
-410
-388
-368
-348
-333
-320
-301
-281
-267
-256
-248
-234
-224
-215
-214
-214
-206
-201
-197
-197
-194
-186
-181
-176
-176
-174
-164
-156
-147
-143
-135
-124
-114
-106
-106
-101
-88
-84
-77
-81
-73
-69
-66
-67
-73
-75
-73
-76
-75
-83
-74
-71
-65
-63
-66
-60
-51
-46
-40
-38
-26
-17
-7
-2
0
9
17
20
21
19
25
27
30
26
24
30
33
35
31
33
38
43
47
46
47
56
63
70
71
77
83
88
90
85
84
92
91
95
89
95
97
100
100
96
96
102
102
106
101
112
117
124
126
123
127
132
132
133
130
135
135
135
129
120
117
113
105
95
83
78
70
62
47
31
23
11
0
-17
-28
-37
-47
-57
-73
-87
-96
-107
-118
-135
-146
-157
-168
-181
-202
-217
-224
-240
-252
-272
-282
-294
-305
-319
-337
-348
-353
-363
-368
-382
-380
-383
-384
-390
-397
-398
-397
-398
-399
-404
-400
-401
-402
-409
-420
-424
-429
-438
-448
-459
-461
-467
-473
-486
-497
-499
-504
-507
-514
-514
-510
-506
-502
-503
-502
-494
-488
-481
-482
-475
-470
-465
-464
-472
-475
-472
-478
-483
-498
-504
-514
-523
-536
-554
-566
-570
-582
-586
-599
-594
-594
-590
-588
-587
-577
-564
-552
-537
-526
-505
-490
-475
-466
-461
-449
-438
-432
-428
-424
-413
-406
-399
-399
-399
-389
-383
-376
-375
-366
-354
-342
-330
-321
-310
-292
-276
-258
-247
-226
-207
-187
-170
-162
-150
-132
-123
-112
-110
-99
-89
-80
-73
-73
-64
-49
-44
-32
-30
-14
-3
9
17
23
35
48
57
67
71
84
92
100
103
103
110
116
119
120
122
130
135
139
135
133
140
143
148
149
154
164
173
181
184
188
198
204
213
213
224
232
241
246
244
246
254
255
259
256
262
266
272
274
269
273
282
282
286
282
290
294
299
299
296
299
304
305
306
303
308
307
307
300
291
290
288
284
276
270
270
267
263
253
244
244
241
239
233
232
235
236
237
232
228
231
228
228
218
220
220
218
214
202
195
193
186
182
171
172
171
172
170
162
163
170
168
170
165
171
173
176
175
172
174
176
174
172
165
166
163
160
150
140
137
132
126
116
107
104
99
94
83
74
76
74
74
71
72
76
79
80
76
74
79
78
80
71
75
74
73
68
56
48
44
35
29
17
16
12
9
2
-11
-16
-15
-22
-26
-34
-32
-33
-32
-35
-42
-43
-44
-50
-58
-70
-75
-84
-94
-112
-131
-142
-156
-171
-190
-207
-218
-230
-241
-258
-272
-278
-288
-297
-311
-322
-329
-337
-346
-359
-369
-370
-378
-381
-394
-394
-398
-402
-408
-418
-424
-426
-433
-435
-447
-445
-446
-446
-449
-459
-460
-457
-459
-458
-461
-455
-450
-445
-444
-445
-440
-434
-432
-430
-430
-420
-414
-408
-408
-410
-403
-399
-397
-400
-399
-394
-391
-390
-395
-399
-396
-397
-399
-405
-407
-407
-407
-409
-416
-419
-413
-414
-409
-415
-407
-401
-396
-392
-392
-385
-374
-367
-355
-352
-334
-322
-307
-296
-291
-279
-263
-251
-238
-229
-212
-198
-185
-177
-173
-162
-152
-146
-140
-137
-125
-117
-109
-107
-105
-96
-89
-83
-81
-75
-65
-56
-47
-44
-39
-27
-18
-9
-5
3
13
22
30
29
34
46
50
58
56
67
75
83
89
91
99
113
121
136
140
161
177
196
211
223
243
267
287
308
325
349
370
389
400
408
421
434
442
448
450
460
464
469
466
461
465
465
464
459
460
464
467
469
466
464
468
471
473
471
474
477
481
483
476
473
476
468
464
448
443
434
426
415
399
390
386
375
369
354
355
351
349
346
340
342
347
349
352
352
360
365
369
368
364
368
371
370
368
364
366
364
363
356
349
353
354
357
355
361
373
384
395
402
412
430
448
470
491
525
566
617
675
735
813
910
1010
1124
1238
1366
1494
1621
1741
1848
1952
2049
2125
2192
2235
2281
2309
2330
2339
2337
2334
2322
2298
2268
2228
2195
2154
2110
2055
1991
1926
1851
1763
1664
1556
1448
1328
1196
1043
875
702
509
302
76
-156
-397
-650
-915
-1192
-1475
-1758
-2046
-2338
-2640
-2938
-3238
-3541
-3849
-4171
-4496
-4822
-5159
-5497
-5845
-6179
-6505
-6816
-7111
-7392
-7646
-7876
-8102
-8314
-8531
-8727
-8925
-9116
-9308
-9496
-9673
-9845
-10020
-10193
-10363
-10513
-10650
-10768
-10870
-10949
-10994
-11012
-11003
-10967
-10903
-10805
-10685
-10539
-10376
-10187
-9964
-9722
-9455
-9169
-8855
-8517
-8162
-7793
-7418
-7034
-6640
-6247
-5850
-5463
-5069
-4684
-4305
-3937
-3586
-3238
-2893
-2564
-2243
-1941
-1642
-1356
-1081
-821
-580
-342
-109
104
311
498
690
868
1039
1198
1346
1493
1635
1767
1894
2012
2135
2251
2364
2468
2566
2670
2768
2860
2946
3029
3114
3192
3264
3324
3380
3440
3489
3533
3565
3596
3624
3645
3662
3670
3676
3685
3688
3692
3684
3687
3687
3687
3683
3672
3666
3666
3661
3659
3649
3649
3647
3645
3640
3628
3623
3624
3615
3611
3599
3598
3593
3587
3576
3562
3553
3544
3530
3516
3497
3487
3473
3459
3441
3422
3412
3401
3390
3377
3367
3364
3361
3359
3351
3345
3349
3349
3349
3344
3342
3342
3339
3332
3317
3303
3294
3276
3260
3231
3214
3191
3168
3142
3110
3083
3063
3040
3020
2994
2980
2964
2950
2934
2913
2903
2899
2889
2884
2872
2871
2866
2862
2853
2839
2832
2824
2811
2799
2783
2776
2764
2750
2731
2710
2697
2682
2666
2647
2632
2622
2611
2600
2583
2569
2564
2555
2548
2536
2527
2523
2517
2511
2500
2492
2491
2483
2479
2463
2460
2453
2446
2437
2422
2412
2408
2398
2391
2375
2372
2365
2361
2353
2339
2335
2337
2332
2331
2324
2327
2325
2324
2318
2308
2304
2300
2292
2283
2270
2265
2256
2248
2232
2215
2206
2196
2187
2175
2166
2163
2159
2155
2145
2138
2138
2135
2134
2128
2126
2127
2127
2124
2114
2108
2108
2100
2096
2080
2078
2072
2067
2061
2050
2044
2043
2037
2035
2025
2028
2028
2030
2029
2023
2026
2034
2036
2040
2039
2046
2049
2053
2051
2046
2050
2054
2053
2051
2045
2049
2047
2046
2038
2028
2028
2027
2025
2020
2021
2026
2031
2035
2034
2036
2045
2051
2058
2061
2068
2078
2087
2095
2095
2098
2109
2110
2115
2110
2117
2122
2127
2129
2126
2128
2135
2136
2143
2141
2155
2164
2175
2184
2188
2201
2217
2230
2244
2255
2273
2288
2303
2312
2318
2330
2342
2349
2353
2354
2363
2367
2371
2368
2365
2371
2374
2376
2373
2375
2382
2386
2391
2390
2391
2399
2405
2411
2412
2416
2421
2424
2423
2413
2408
2408
2397
2390
2372
2365
2355
2344
2331
2313
2299
2289
2272
2260
2236
2228
2212
2197
2177
2151
2131
2112
2088
2066
2040
2022
2001
1982
1957
1930
1911
1892
1869
1845
1820
1803
1783
1764
1739
1715
1700
1682
1666
1644
1628
1615
1601
1586
1565
1545
1533
1517
1502
1480
1463
1446
1427
1405
1372
1343
1322
1291
1262
1224
1194
1160
1125
1085
1038
996
958
912
870
816
779
736
694
647
597
553
511
466
421
372
332
289
246
197
145
99
53
3
-50
-103
-149
-197
-244
-296
-348
-391
-437
-483
-535
-580
-622
-665
-709
-756
-802
-841
-882
-923
-970
-1010
-1052
-1094
-1138
-1192
-1240
-1282
-1332
-1378
-1433
-1478
-1525
-1572
-1622
-1675
-1722
-1761
-1807
-1846
-1893
-1924
-1959
-1991
-2027
-2064
-2094
-2122
-2151
-2178
-2207
-2227
-2249
-2270
-2298
-2328
-2352
-2376
-2403
-2432
-2462
-2485
-2511
-2537
-2568
-2597
-2616
-2638
-2657
-2680
-2697
-2708
-2718
-2727
-2739
-2748
-2749
-2752
-2752
-2758
-2755
-2753
-2749
-2748
-2754
-2753
-2745
-2745
-2741
-2744
-2740
-2737
-2734
-2734
-2740
-2738
-2729
-2728
-2721
-2723
-2710
-2701
-2690
-2682
-2675
-2661
-2644
-2629
-2613
-2600
-2577
-2557
-2538
-2524
-2515
-2498
-2482
-2470
-2460
-2451
-2436
-2423
-2411
-2407
-2402
-2389
-2381
-2371
-2366
-2354
-2339
-2323
-2307
-2295
-2280
-2258
-2238
-2216
-2201
-2175
-2152
-2127
-2105
-2090
-2070
-2044
-2026
-2006
-1995
-1976
-1959
-1942
-1929
-1922
-1908
-1887
-1875
-1858
-1850
-1828
-1811
-1793
-1779
-1767
-1747
-1726
-1708
-1689
-1675
-1652
-1635
-1618
-1608
-1599
-1582
-1567
-1554
-1544
-1534
-1518
-1506
-1496
-1494
-1492
-1481
-1475
-1469
-1469
-1463
-1453
-1444
-1435
-1430
-1423
-1411
-1403
-1392
-1390
-1375
-1364
-1351
-1341
-1338
-1330
-1319
-1313
-1306
-1306
-1297
-1290
-1284
-1280
-1284
-1279
-1268
-1266
-1260
-1261
-1250
-1244
-1236
-1232
-1230
-1220
-1210
-1204
-1197
-1196
-1186
-1182
-1179
-1183
-1188
-1186
-1185
-1187
-1191
-1195
-1193
-1195
-1197
-1206
-1214
-1213
-1216
-1217
-1222
-1222
-1218
-1215
-1214
-1217
-1219
-1214
-1214
-1209
-1214
-1206
-1201
-1195
-1192
-1195
-1194
-1189
-1189
-1185
-1190
-1184
-1182
-1178
-1177
-1181
-1177
-1167
-1164
-1158
-1157
-1146
-1138
-1128
-1123
-1119
-1109
-1097
-1090
-1083
-1079
-1066
-1059
-1051
-1050
-1050
-1042
-1034
-1028
-1026
-1022
-1011
-1003
-995
-993
-989
-977
-966
-955
-947
-934
-917
-902
-886
-876
-862
-841
-826
-806
-797
-775
-757
-739
-725
-717
-706
-691
-681
-669
-664
-646
-632
-616
-602
-594
-576
-554
-538
-519
-504
-480
-459
-436
-418
-402
-380
-358
-342
-329
-319
-303
-293
-284
-282
-281
-273
-267
-262
-261
-256
-246
-237
-228
-226
-219
-205
-193
-182
-175
-164
-152
-141
-132
-129
-123
-107
-99
-85
-82
-66
-54
-41
-32
-27
-18
-5
1
11
12
25
33
41
44
40
42
46
44
44
39
43
44
46
43
39
41
43
42
40
37
43
46
51
50
48
55
59
63
63
66
74
80
85
85
86
95
99
101
98
98
99
99
97
87
82
85
80
81
71
72
71
71
68
62
60
64
64
69
65
76
82
90
94
92
98
107
112
119
121
131
138
145
146
143
147
151
151
150
148
154
156
160
158
155
162
165
169
169
174
184
193
202
206
212
224
234
242
245
251
257
263
265
258
256
260
254
252
239
235
229
222
214
201
195
194
187
186
176
182
183
186
185
180
181
185
185
186
183
187
187
185
176
164
158
151
140
126
111
103
90
77
58
38
26
11
-3
-22
-34
-42
-51
-60
-74
-85
-90
-97
-103
-113
-118
-121
-124
-128
-140
-147
-146
-155
-161
-176
-181
-189
-195
-204
-217
-224
-226
-234
-237
-250
-246
-248
-248
-251
-257
-255
-251
-249
-247
-249
-243
-241
-239
-242
-249
-248
-247
-250
-254
-260
-259
-260
-262
-270
-278
-277
-279
-279
-284
-283
-278
-275
-272
-274
-274
-268
-263
-258
-259
-253
-246
-240
-236
-241
-240
-233
-235
-234
-241
-239
-240
-239
-240
-246
-245
-237
-238
-233
-238
-229
-225
-220
-218
-219
-212
-204
-199
-193
-191
-180
-174
-167
-166
-168
-161
-154
-151
-150
-149
-141
-136
-132
-134
-135
-129
-126
-123
-125
-120
-112
-105
-98
-96
-94
-86
-81
-74
-75
-65
-57
-50
-45
-48
-47
-40
-40
-36
-40
-34
-29
-22
-17
-18
-12
1
5
15
15
29
39
50
57
61
70
81
87
92
92
99
102
104
100
94
95
95
92
87
83
84
83
82
74
69
74
76
81
81
87
96
105
112
116
121
133
141
151
152
165
175
185
191
188
191
199
200
204
200
205
208
212
212
205
205
211
208
211
206
214
219
226
229
230
237
245
249
253
253
263
268
273
271
268
271
273
271
265
260
259
255
251
239
229
228
223
221
213
212
214
215
216
213
213
221
224
232
230
241
248
254
257
252
252
257
257
259
253
257
258
260
259
251
251
257
256
259
257
267
274
282
287
290
298
306
309
312
311
318
321
325
322
318
321
322
321
315
310
310
307
303
291
280
277
268
260
245
234
225
215
204
188
177
174
165
162
149
150
148
147
145
138
137
143
146
154
155
170
183
202
221
242
279
331
388
460
540
641
751
867
983
1097
1217
1334
1442
1542
1626
1707
1770
1820
1852
1870
1887
1893
1888
1869
1842
1812
1774
1729
1673
1612
1553
1483
1405
1313
1214
1109
996
874
736
590
439
265
82
-129
-342
-573
-815
-1072
-1344
-1620
-1899
-2189
-2480
-2784
-3077
-3377
-3677
-3981
-4290
-4589
-4883
-5185
-5490
-5806
-6118
-6438
-6761
-7088
-7410
-7710
-7987
-8244
-8476
-8689
-8874
-9048
-9211
-9370
-9521
-9657
-9788
-9915
-10043
-10168
-10294
-10426
-10559
-10695
-10818
-10919
-11005
-11068
-11111
-11126
-11110
-11065
-10993
-10900
-10775
-10616
-10439
-10232
-10011
-9754
-9476
-9175
-8855
-8519
-8159
-7780
-7395
-6997
-6603
-6192
-5785
-5378
-4977
-4585
-4191
-3801
-3423
-3053
-2696
-2341
-2000
-1670
-1357
-1059
-767
-487
-224
25
259
489
703
905
1092
1267
1442
1606
1763
1909
2053
2197
2333
2464
2583
2698
2817
2928
3035
3133
3230
3325
3414
3497
3566
3635
3705
3760
3813
3850
3893
3927
3956
3978
3990
4003
4018
4022
4028
4021
4027
4026
4026
4021
4012
4011
4013
4012
4014
4013
4022
4030
4040
4047
4052
4067
4082
4093
4104
4111
4125
4132
4138
4135
4129
4128
4122
4114
4097
4081
4066
4045
4021
3990
3959
3935
3907
3881
3850
3826
3805
3786
3765
3739
3719
3709
3692
3680
3661
3653
3645
3637
3625
3607
3593
3582
3561
3544
3515
3500
3477
3454
3425
3392
3364
3336
3304
3273
3238
3213
3187
3163
3137
3113
3099
3088
3075
3064
3052
3050
3047
3045
3038
3032
3036
3037
3037
3031
3030
3031
3029
3024
3013
3002
2998
2991
2985
2972
2964
2958
2950
2941
2924
2913
2912
2904
2901
2891
2891
2890
2889
2885
2876
2871
2871
2862
2856
2839
2836
2825
2815
2799
2778
2762
2745
2723
2701
2673
2654
2630
2607
2579
2549
2527
2506
2483
2459
2436
2421
2405
2390
2371
2354
2345
2333
2322
2305
2293
2284
2274
2262
2245
2229
2219
2206
2193
2172
2159
2144
2130
2112
2088
2069
2058
2039
2025
2004
1994
1982
1972
1960
1943
1935
1933
1926
1924
1913
1917
1917
1916
1912
1904
1902
1900
1895
1888
1879
1878
1873
1869
1858
1845
1840
1835
1829
1821
1814
1815
1815
1816
1811
1809
1817
1821
1827
1828
1834
1845
1854
1864
1868
1875
1888
1896
1906
1908
1919
1927
1935
1939
1936
1940
1950
1954
1961
1961
1970
1977
1985
1990
1989
1997
2011
2016
2027
2030
2045
2056
2067
2073
2078
2088
2099
2107
2116
2122
2136
2146
2155
2157
2158
2165
2171
2175
2178
2182
2192
2201
2210
2212
2217
2230
2238
2248
2252
2260
2271
2281
2291
2297
2304
2315
2321
2329
2327
2337
2342
2348
2351
2346
2347
2353
2353
2356
2351
2356
2357
2360
2359
2353
2354
2363
2363
2368
2365
2375
2379
2383
2382
2379
2381
2385
2383
2381
2375
2376
2372
2366
2354
2338
2329
2318
2304
2287
2271
2260
2247
2234
2215
2197
2189
2177
2166
2151
2142
2137
2132
2127
2116
2108
2106
2098
2094
2078
2075
2067
2058
2045
2025
2009
1995
1975
1956
1928
1909
1887
1865
1839
1807
1783
1765
1738
1714
1684
1664
1639
1615
1584
1550
1523
1496
1465
1433
1395
1364
1327
1289
1243
1194
1151
1106
1058
1005
954
907
858
806
747
690
639
585
531
472
419
369
318
266
209
154
105
49
-5
-70
-122
-178
-236
-297
-365
-428
-488
-554
-616
-686
-742
-801
-856
-914
-977
-1030
-1077
-1131
-1181
-1236
-1281
-1327
-1372
-1421
-1472
-1515
-1556
-1601
-1645
-1692
-1730
-1773
-1816
-1865
-1916
-1957
-2000
-2044
-2091
-2134
-2172
-2212
-2251
-2297
-2341
-2376
-2415
-2453
-2494
-2530
-2561
-2592
-2624
-2662
-2695
-2720
-2750
-2774
-2808
-2826
-2845
-2862
-2880
-2901
-2917
-2928
-2943
-2954
-2973
-2977
-2985
-2989
-2997
-3012
-3017
-3019
-3025
-3029
-3037
-3037
-3038
-3039
-3044
-3052
-3052
-3051
-3055
-3059
-3065
-3063
-3065
-3067
-3074
-3082
-3080
-3079
-3079
-3082
-3081
-3076
-3072
-3067
-3069
-3067
-3057
-3050
-3043
