12656
12523
12342
12117
11855
11536
11171
10774
10347
9896
9407
8897
8369
7841
7310
6752
6204
5664
5138
4631
4135
3662
3212
2793
2396
1994
1621
1263
923
600
279
-17
-293
-541
-774
-1003
-1208
-1401
-1579
-1748
-1914
-2064
-2201
-2317
-2434
-2553
-2654
-2750
-2835
-2918
-3000
-3069
-3125
-3163
-3209
-3250
-3278
-3299
-3311
-3326
-3336
-3338
-3330
-3311
-3300
-3287
-3269
-3248
-3223
-3209
-3188
-3167
-3132
-3094
-3079
-3059
-3040
-3023
-3008
-3004
-2999
-2995
-2983
-2971
-2982
-2981
-2982
-2981
-2978
-2985
-2983
-2978
-2961
-2946
-2941
-2927
-2914
-2896
-2880
-2869
-2852
-2831
-2797
-2772
-2756
-2730
-2706
-2681
-2662
-2648
-2630
-2607
-2575
-2560
-2548
-2531
-2516
-2498
-2487
-2476
-2461
-2439
-2408
-2389
-2367
-2342
-2316
-2285
-2269
-2245
-2220
-2183
-2141
-2120
-2089
-2058
-2026
-1994
-1971
-1946
-1921
-1885
-1848
-1837
-1814
-1794
-1775
-1758
-1751
-1740
-1727
-1704
-1686
-1678
-1662
-1647
-1629
-1614
-1605
-1591
-1573
-1543
-1523
-1511
-1490
-1470
-1447
-1430
-1415
-1395
-1368
-1331
-1311
-1293
-1272
-1252
-1231
-1218
-1209
-1199
-1184
-1164
-1161
-1158
-1153
-1149
-1140
-1147
-1146
-1143
-1128
-1107
-1104
-1093
-1082
-1068
-1052
-1046
-1034
-1021
-994
-965
-959
-938
-918
-898
-880
-872
-862
-852
-835
-824
-828
-825
-826
-826
-830
-843
-850
-852
-843
-843
-851
-849
-846
-840
-839
-839
-834
-820
-796
-787
-778
-763
-747
-729
-716
-705
-693
-674
-649
-642
-633
-624
-618
-609
-617
-621
-626
-622
-616
-626
-629
-633
-634
-632
-640
-641
-640
-625
-608
-614
-604
-596
-584
-573
-568
-558
-545
-523
-507
-503
-491
-482
-471
-466
-469
-469
-466
-453
-454
-465
-469
-476
-479
-491
-505
-514
-514
-502
-506
-510
-509
-507
-503
-504
-505
-504
-495
-477
-479
-474
-467
-461
-451
-456
-455
-454
-444
-432
-437
-437
-439
-440
-440
-456
-464
-473
-467
-461
-476
-477
-478
-477
-476
-481
-481
-477
-461
-450
-452
-444
-438
-428
-423
-424
-420
-410
-390
-382
-383
-375
-371
-364
-366
-370
-372
-367
-355
-360
-367
-371
-375
-378
-386
-396
-404
-403
-394
-405
-407
-406
-404
-396
-400
-397
-392
-376
-355
-350
-337
-325
-312
-297
-298
-291
-284
-265
-249
-253
-249
-248
-246
-248
-257
-263
-267
-261
-262
-275
-278
-282
-283
-287
-297
-300
-297
-283
-278
-278
-269
-259
-245
-239
-233
-224
-207
-183
-175
-170
-162
-155
-148
-149
-151
-153
-146
-132
-142
-143
-142
-141
-136
-142
-142
-140
-128
-112
-113
-104
-94
-82
-66
-65
-54
-42
-16
8
16
32
48
64
77
82
90
98
116
125
121
124
125
126
124
115
112
115
130
133
132
140
147
160
165
171
181
200
228
245
261
282
303
326
341
356
371
395
426
430
443
454
463
474
473
475
477
487
501
495
500
505
512
522
519
526
536
560
583
593
612
630
652
671
685
703
724
755
776
784
798
809
821
824
819
816
816
825
818
804
796
787
782
767
751
740
737
742
736
728
725
723
725
717
712
708
716
730
719
718
716
712
708
692
678
663
655
647
616
596
574
551
530
495
467
442
428
412
385
366
347
330
312
287
268
253
250
239
216
204
190
180
165
144
127
116
114
97
76
60
41
25
-1
-29
-53
-71
-81
-103
-127
-146
-164
-179
-204
-224
-242
-246
-245
-266
-277
-287
-297
-304
-319
-329
-338
-335
-328
-343
-345
-349
-351
-352
-367
-376
-383
-382
-385
-401
-410
-421
-430
-442
-461
-475
-484
-481
-486
-502
-508
-515
-519
-529
-542
-548
-548
-536
-538
-542
-539
-538
-532
-534
-537
-537
-532
-522
-526
-533
-540
-549
-556
-578
-597
-616
-623
-625
-649
-664
-677
-689
-698
-716
-729
-741
-741
-737
-755
-758
-760
-760
-757
-764
-762
-755
-737
-722
-718
-706
-694
-682
-672
-672
-668
-662
-647
-643
-651
-650
-651
-648
-653
-661
-665
-662
-649
-651
-655
-652
-649
-641
-640
-638
-633
-622
-601
-593
-583
-570
-557
-540
-539
-532
-525
-508
-487
-489
-486
-484
-484
-484
-495
-501
-508
-502
-493
-508
-508
-510
-509
-507
-512
-512
-507
-491
-479
-476
-463
-449
-432
-416
-408
-395
-379
-352
-337
-334
-324
-318
-312
-314
-321
-327
-326
-317
-324
-334
-337
-341
-342
-348
-355
-358
-355
-343
-346
-344
-339
-331
-318
-318
-311
-302
-281
-256
-249
-236
-224
-211
-199
-200
-197
-195
-182
-170
-183
-183
-185
-186
-186
-194
-196
-194
-181
-171
-171
-160
-151
-137
-125
-118
-105
-86
-55
-33
-19
4
25
50
65
77
90
109
135
142
145
152
156
160
157
151
147
151
163
158
159
163
168
179
177
181
188
207
229
236
248
260
273
288
290
298
307
327
347
343
350
354
358
359
351
345
340
343
339
323
317
308
303
294
279
270
268
277
277
271
273
275
281
279
275
276
284
303
304
304
307
308
311
306
298
290
289
293
275
263
251
238
230
207
191
176
172
173
159
152
147
144
143
130
126
123
136
149
142
147
152
159
164
162
164
167
178
182
171
169
162
157
145
125
110
99
99
87
68
58
48
43
30
17
8
8
18
14
8
7
7
8
3
-1
-4
3
17
8
7
5
3
3
-9
-19
-29
-32
-34
-54
-67
-82
-95
-105
-130
-146
-159
-157
-155
-170
-174
-178
-179
-181
-188
-190
-189
-178
-172
-177
-173
-171
-167
-168
-177
-183
-184
-175
-181
-193
-200
-207
-210
-223
-236
-245
-246
-238
-242
-248
-248
-248
-243
-245
-246
-244
-231
-210
-211
-203
-194
-184
-171
-168
-162
-155
-140
-122
-124
-118
-115
-112
-108
-122
-128
-135
-130
-128
-142
-148
-155
-159
-164
-174
-179
-180
-169
-165
-174
-172
-171
-166
-165
-170
-168
-160
-141
-134
-134
-127
-121
-114
-117
-122
-126
-125
-118
-125
-137
-147
-158
-167
-183
-198
-211
-212
-205
-220
-224
-227
-228
-225
-230
-231
-228
-215
-197
-198
-187
-176
-164
-149
-149
-141
-131
-112
-96
-96
-90
-87
-83
-84
-94
-101
-105
-99
-100
-112
-113
-115
-113
-115
-121
-121
-114
-96
-90
-88
-79
-70
-56
-51
-46
-38
-24
-3
4
7
12
15
19
11
4
-2
2
12
-4
-12
-19
-28
-35
-53
-69
-86
-92
-95
-116
-123
-127
-127
-119
-118
-101
-73
-25
30
81
146
216
293
372
447
532
623
730
833
932
1049
1172
1310
1454
1606
1776
1963
2171
2375
2588
2819
3060
3316
3576
3848
4136
4442
4767
5090
5421
5763
6113
6471
6819
7173
7528
7895
8268
8615
8967
9314
9656
9991
10306
10612
10907
11201
11481
11717
11941
12129
12277
12379
12419
12412
12356
12257
12104
11893
11646
11358
11033
10669
10270
9852
9414
8967
8496
8003
7512
7016
6524
6030
5542
5070
4619
4194
3768
3356
2964
2584
2219
1859
1510
1178
864
572
284
11
-241
-478
-696
-912
-1109
-1294
-1455
-1601
-1756
-1892
-2016
-2130
-2234
-2340
-2435
-2523
-2593
-2655
-2735
-2796
-2853
-2905
-2952
-3004
-3046
-3080
-3099
-3117
-3141
-3152
-3160
-3161
-3159
-3161
-3154
-3140
-3113
-3092
-3080
-3058
-3036
-3011
-2993
-2978
-2961
-2938
-2907
-2895
-2888
-2877
-2870
-2862
-2864
-2869
-2874
-2873
-2867
-2876
-2883
-2886
-2889
-2885
-2895
-2898
-2897
-2884
-2864
-2862
-2852
-2840
-2825
-2808
-2799
-2786
-2771
-2743
-2713
-2706
-2686
-2667
-2648
-2631
-2624
-2614
-2601
-2580
-2564
-2562
-2552
-2545
-2536
-2529
-2530
-2524
-2511
-2487
-2471
-2463
-2444
-2425
-2401
-2382
-2366
-2344
-2314
-2274
-2251
-2228
-2200
-2172
-2141
-2117
-2095
-2071
-2041
-2006
-1987
-1967
-1946
-1926
-1904
-1899
-1889
-1878
-1857
-1832
-1825
-1810
-1796
-1779
-1761
-1754
-1740
-1725
-1696
-1666
-1659
-1637
-1617
-1596
-1575
-1561
-1542
-1519
-1487
-1459
-1443
-1420
-1398
-1375
-1356
-1346
-1331
-1314
-1288
-1274
-1269
-1257
-1248
-1237
-1234
-1234
-1230
-1217
-1194
-1187
-1181
-1168
-1155
-1140
-1129
-1120
-1108
-1088
-1061
-1051
-1035
-1017
-998
-976
-969
-956
-943
-921
-897
-891
-879
-868
-858
-848
-853
-851
-849
-833
-817
-822
-813
-805
-794
-784
-780
-772
-760
-738
-720
-713
-696
-680
-661
-644
-633
-617
-595
-564
-545
-535
-519
-505
-488
-482
-479
-475
-464
-446
-444
-445
-441
-438
-432
-431
-431
-428
-417
-397
-396
-388
-377
-366
-349
-345
-336
-323
-300
-273
-261
-243
-226
-208
-190
-187
-177
-168
-147
-128
-130
-123
-118
-114
-111
-115
-115
-112
-99
-90
-93
-85
-76
-63
-52
-48
-37
-20
9
27
39
59
78
102
116
128
143
165
193
205
213
223
231
239
238
234
230
235
246
234
231
229
229
233
227
226
229
241
258
259
268
278
289
303
302
309
317
338
355
352
357
359
360
357
345
334
324
321
309
283
265
246
228
208
182
162
149
148
138
123
118
114
115
110
105
105
114
133
140
145
156
167
180
183
187
190
201
218
208
205
202
197
192
176
163
153
152
155
140
134
129
126
128
117
116
118
133
147
147
156
165
176
184
186
192
200
218
227
222
225
225
224
216
200
186
178
179
167
150
141
132
128
116
104
98
100
110
109
106
108
110
116
113
113
115
129
149
145
152
158
163
170
166
163
161
165
171
154
147
137
127
120
99
86
77
81
83
74
74
75
80
84
83
88
98
118
132
135
148
160
175
184
188
196
210
232
240
242
250
256
266
265
263
264
271
286
290
293
300
308
320
321
328
335
355
381
383
396
408
421
435
440
448
457
476
497
494
502
506
510
514
503
497
491
493
491
473
462
449
438
424
402
385
371
369
359
337
324
311
300
283
262
245
235
237
224
208
198
187
178
160
140
122
108
101
80
57
35
12
-9
-44
-74
-103
-121
-133
-167
-191
-214
-234
-252
-277
-298
-318
-326
-330
-356
-366
-376
-383
-387
-401
-408
-412
-406
-404
-414
-417
-423
-428
-438
-457
-471
-483
-485
-498
-521
-536
-553
-566
-584
-606
-621
-629
-626
-638
-651
-655
-660
-660
-665
-670
-670
-663
-648
-644
-641
-634
-628
-618
-623
-622
-622
-612
-598
-607
-610
-615
-620
-625
-640
-652
-663
-661
-656
-675
-678
-681
-681
-679
-685
-684
-678
-661
-647
-642
-627
-613
-595
-581
-575
-565
-552
-530
-518
-518
-511
-508
-503
-508
-518
-525
-527
-518
-526
-536
-540
-544
-544
-549
-555
-556
-550
-536
-535
-530
-521
-511
-496
-495
-486
-475
-453
-428
-421
-410
-399
-388
-378
-380
-380
-382
-372
-362
-378
-381
-385
-387
-390
-401
-406
-407
-398
-392
-397
-392
-388
-380
-373
-373
-367
-356
-334
-323
-321
-311
-303
-293
-292
-295
-296
-291
-278
-283
-292
-298
-305
-311
-323
-337
-349
-353
-349
-362
-368
-370
-371
-366
-375
-376
-375
-362
-345
-344
-337
-329
-319
-307
-306
-299
-293
-274
-257
-264
-259
-257
-255
-257
-267
-274
-279
-275
-277
-291
-295
-301
-304
-310
-321
-326
-325
-313
-311
-315
-310
-304
-293
-290
-288
-281
-266
-242
-235
-231
-223
-218
-212
-213
-218
-222
-221
-215
-230
-240
-251
-262
-269
-289
-302
-313
-313
-308
-318
-321
-321
-320
-314
-320
-317
-312
-293
-273
-273
-261
-250
-238
-227
-223
-216
-209
-194
-185
-192
-192
-195
-197
-205
-223
-236
-244
-240
-248
-261
-265
-269
-266
-271
-276
-277
-268
-250
-246
-243
-234
-226
-214
-207
-202
-194
-178
-155
-153
-145
-137
-130
-121
-126
-128
-131
-125
-119
-129
-133
-137
-138
-137
-149
-151
-151
-137
-125
-130
-123
-116
-106
-98
-95
-88
-77
-55
-39
-35
-22
-10
2
9
8
11
19
35
37
32
32
29
29
18
7
0
0
10
7
2
4
6
11
9
7
7
18
37
33
39
46
54
67
68
74
80
95
112
110
115
119
123
129
118
114
111
119
126
115
114
113
114
114
109
109
113
129
138
135
142
148
156
161
161
166
176
198
207
210
219
225
234
232
229
226
230
241
236
227
221
214
209
196
185
174
175
183
168
163
160
158
159
152
150
150
161
176
173
181
189
198
209
205
209
214
230
241
237
239
237
236
230
216
205
198
201
196
179
173
165
162
154
141
134
134
146
144
140
142
145
153
153
154
158
169
186
190
191
194
196
200
191
182
173
173
178
157
147
136
126
118
102
89
79
79
82
67
65
63
65
70
63
65
71
90
106
111
122
131
141
147
144
143
144
154
153
138
130
120
110
95
74
58
48
48
35
18
9
0
-4
-16
-27
-34
-33
-23
-23
-25
-22
-18
-10
-13
-13
-13
-2
13
4
1
-3
-10
-18
-36
-54
-72
-80
-87
-115
-129
-143
-155
-164
-183
-194
-201
-195
-190
-196
-193
-189
-181
-175
-175
-169
-159
-138
-126
-126
-118
-113
-108
-110
-118
-124
-126
-119
-130
-145
-154
-164
-171
-186
-202
-214
-218
-213
-220
-227
-229
-229
-225
-232
-233
-233
-220
-201
-204
-197
-189
-181
-173
-176
-176
-177
-167
-156
-170
-171
-176
-181
-187
-205
-218
-228
-228
-232
-246
-251
-255
-255
-257
-264
-264
-258
-241
-231
-230
-218
-207
-191
-182
-177
-169
-155
-132
-126
-124
-117
-112
-107
-111
-117
-123
-124
-119
-128
-136
-141
-146
-145
-158
-163
-166
-155
-139
-142
-137
-131
-123
-113
-111
-104
-94
-71
-46
-45
-30
-17
-4
8
10
15
22
37
46
42
46
47
50
49
41
38
40
54
59
55
61
66
74
77
77
83
97
122
131
140
155
169
186
195
202
210
222
239
239
240
241
241
244
230
221
213
214
218
202
192
180
168
156
133
117
103
106
113
101
108
119
138
165
195
239
294
365
437
501
579
659
748
836
921
1017
1123
1248
1371
1497
1644
1802
1978
2160
2350
2556
2779
3024
3264
3515
3781
4058
4351
4652
4965
5293
5640
6004
6359
6727
7102
7482
7868
8242
8624
9007
9399
9794
10167
10541
10908
11267
11616
11940
12256
12555
12843
13102
13300
13465
13579
13640
13641
13576
13456
13284
13071
12806
12483
12126
11730
11302
10842
10349
9837
9309
8778
8225
7658
7098
6540
5995
5456
4932
4430
3954
3503
3053
2617
2200
1800
1417
1045
690
354
46
-235
-517
-772
-1009
-1229
-1431
-1632
-1814
-1982
-2129
-2262
-2400
-2522
-2636
-2740
-2834
-2935
-3021
-3101
-3161
-3217
-3287
-3341
-3390
-3431
-3467
-3503
-3529
-3546
-3548
-3550
-3560
-3554
-3546
-3532
-3518
-3510
-3494
-3471
-3437
-3414
-3398
-3375
-3353
-3329
-3315
-3305
-3293
-3276
-3251
-3243
-3239
-3232
-3228
-3223
-3225
-3229
-3231
-3224
-3208
-3213
-3209
-3202
-3194
-3181
-3179
-3171
-3160
-3140
-3115
-3106
-3088
-3069
-3049
-3025
-3016
-2999
-2979
-2946
-2915
-2902
-2879
-2858
-2836
-2817
-2805
-2790
-2773
-2747
-2729
-2724
-2709
-2696
-2680
-2667
-2661
-2649
-2631
-2602
-2584
-2572
-2551
-2531
-2507
-2490
-2474
-2454
-2426
-2391
-2368
-2347
-2321
-2297
-2271
-2254
-2236
-2218
-2189
-2154
-2143
-2122
-2102
-2082
-2060
-2050
-2036
-2020
-1996
-1967
-1957
-1936
-1916
-1895
-1872
-1865
-1849
-1831
-1799
-1769
-1753
-1729
-1704
-1677
-1651
-1631
-1607
-1580
-1543
-1514
-1498
-1473
-1450
-1427
-1410
-1401
-1390
-1375
-1351
-1341
-1337
-1326
-1316
-1301
-1294
-1287
-1275
-1255
-1226
-1210
-1196
-1177
-1158
-1136
-1122
-1106
-1089
-1059
-1023
-1011
-990
-969
-948
-927
-917
-905
-894
-875
-856
-858
-852
-848
-842
-835
-842
-840
-835
-817
-801
-797
-785
-773
-758
-744
-735
-720
-701
-669
-645
-632
-609
-588
-566
-550
-542
-531
-516
-492
-484
-482
-476
-473
-468
-473
-478
-481
-476
-464
-463
-464
-460
-455
-447
-448
-446
-442
-427
-405
-406
-398
-389
-379
-367
-365
-359
-352
-335
-317
-320
-311
-305
-299
-292
-300
-302
-302
-293
-288
-296
-297
-299
-298
-299
-306
-309
-308
-295
-289
-295
-291
-288
-282
-281
-285
-285
-278
-260
-256
-256
-249
-244
-236
-238
-241
-243
-239
-229
-232
-238
-242
-247
-250
-266
-279
-291
-291
-286
-304
-311
-317
-321
-324
-334
-341
-346
-339
-328
-339
-336
-334
-329
-322
-326
-323
-318
-303
-292
-294
-289
-288
-285
-287
-297
-303
-307
-301
-303
-317
-321
-327
-330
-339
-352
-361
-361
-350
-353
-358
-355
-352
-344
-343
-341
-336
-324
-304
-297
-290
-280
-271
-258
-261
-259
-259
-248
-234
-242
-245
-248
-252
-255
-269
-278
-286
-282
-275
-290
-291
-293
-292
-290
-297
-297
-293
-278
-267
-266
-257
-248
-236
-227
-227
-222
-214
-195
-187
-192
-191
-193
-194
-203
-218
-230
-235
-229
-240
-252
-257
-261
-262
-267
-273
-274
-269
-256
-255
-252
-245
-236
-222
-221
-213
-202
-180
-154
-148
-135
-123
-112
-101
-102
-100
-99
-87
-74
-85
-82
-81
-78
-74
-77
-73
-65
-47
-31
-26
-11
3
22
39
50
66
88
122
145
159
181
200
221
233
240
249
265
289
295
298
305
310
317
318
318
322
334
355
361
373
388
405
427
434
449
464
492
523
536
556
577
598
620
629
643
656
680
703
701
710
715
719
720
713
707
702
706
704
690
685
679
675
668
654
645
642
649
647
635
633
629
629
621
611
605
607
618
611
602
596
588
581
565
547
528
514
507
478
454
431
408
388
355
328
303
289
281
257
240
225
212
203
182
171
161
166
172
157
156
153
152
147
136
127
118
118
110
88
73
55
37
14
-16
-42
-62
-72
-92
-118
-135
-152
-163
-182
-200
-213
-218
-212
-221
-229
-231
-232
-230
-233
-238
-241
-237
-227
-239
-244
-250
-258
-265
-286
-303
-320
-329
-336
-359
-375
-390
-403
-413
-435
-447
-456
-451
-444
-456
-456
-455
-453
-451
-454
-454
-449
-435
-426
-430
-425
-423
-420
-421
-431
-436
-437
-428
-433
-446
-451
-459
-463
-475
-488
-498
-498
-488
-492
-495
-493
-490
-484
-484
-483
-480
-467
-446
-448
-440
-431
-421
-408
-407
-401
-395
-381
-364
-365
-359
-355
-352
-348
-361
-366
-371
-362
-356
-367
-369
-371
-370
-371
-377
-378
-376
-362
-353
-357
-349
-343
-333
-327
-326
-318
-305
-281
-269
-265
-253
-243
-230
-227
-226
-224
-215
-200
-199
-202
-201
-199
-195
-198
-201
-202
-192
-173
-177
-169
-158
-146
-129
-121
-107
-89
-59
-25
-7
20
46
70
94
101
115
127
149
165
162
168
171
179
190
201
226
265
326
391
457
543
637
742
849
958
1080
1217
1373
1528
1689
1870
2058
2261
2467
2687
2929
3195
3486
3779
4087
4415
4759
5121
5490
5877
6278
6703
7144
7568
8008
8452
8899
9350
9793
10240
10685
11135
11580
11993
12401
12786
13148
13487
13785
14065
14317
14548
14739
14875
14970
15012
15002
14937
14814
14643
14424
14163
13839
13450
13016
12529
12000
11430
10825
10203
9573
8947
8307
7671
7052
6445
5861
5288
4737
4211
3715
3252
2801
2371
1966
1581
1219
865
534
222
-60
-318
-581
-819
-1039
-1246
-1438
-1628
-1804
-1968
-2111
-2242
-2384
-2503
-2613
-2712
-2799
-2890
-2965
-3028
-3074
-3114
-3159
-3190
-3216
-3234
-3249
-3266
-3274
-3275
-3262
-3257
-3261
-3257
-3253
-3247
-3249
-3257
-3261
-3261
-3253
-3262
-3275
-3282
-3290
-3295
-3307
-3321
-3330
-3333
-3326
-3330
-3334
-3334
-3333
-3326
-3330
-3328
-3323
-3303
-3277
-3273
-3259
-3244
-3228
-3212
-3206
-3197
-3188
-3168
-3148
-3153
-3146
-3142
-3138
-3135
-3144
-3145
-3143
-3130
-3121
-3122
-3114
-3106
-3094
-3084
-3079
-3068
-3051
-3022
-3001
-2990
-2969
-2949
-2925
-2907
-2893
-2876
-2853
-2821
-2806
-2794
-2778
-2764
-2749
-2743
-2741
-2737
-2729
-2713
-2711
-2708
-2702
-2696
-2684
-2684
-2677
-2667
-2644
-2615
-2605
-2586
-2565
-2543
-2519
-2503
-2482
-2459
-2424
-2387
-2375
-2348
-2325
-2302
-2280
-2271
-2258
-2246
-2227
-2215
-2216
-2210
-2207
-2203
-2201
-2206
-2206
-2199
-2181
-2170
-2168
-2155
-2143
-2126
-2114
-2104
-2088
-2064
-2028
-2006
-1985
-1957
-1928
-1896
-1871
-1847
-1822
-1793
-1757
-1738
-1720
-1702
-1686
-1667
-1664
-1656
-1648
-1630
-1607
-1602
-1591
-1577
-1562
-1544
-1537
-1523
-1507
-1477
-1444
-1435
-1410
-1386
-1361
-1335
-1316
-1293
-1268
-1234
-1207
-1192
-1170
-1152
-1133
-1120
-1116
-1108
-1099
-1081
-1075
-1079
-1074
-1071
-1063
-1063
-1065
-1062
-1051
-1028
-1022
-1016
-1003
-990
-974
-963
-954
-942
-922
-894
-883
-866
-848
-831
-811
-808
-800
-793
-777
-760
-761
-758
-757
-755
-752
-760
-762
-762
-747
-730
-735
-726
-718
-708
-698
-694
-686
-675
-654
-637
-632
-618
-604
-588
-576
-570
-561
-548
-525
-514
-513
-505
-500
-493
-495
-502
-506
-503
-492
-497
-503
-504
-505
-504
-508
-512
-513
-506
-491
-494
-489
-483
-476
-465
-467
-462
-456
-439
-419
-415
-407
-398
-389
-379
-384
-382
-380
-367
-355
-367
-368
-371
-372
-374
-382
-386
-387
-376
-372
-379
-376
-375
-370
-368
-372
-370
-363
-344
-334
-330
-317
-305
-290
-284
-281
-277
-267
-250
-251
-255
-256
-261
-264
-276
-288
-300
-301
-295
-309
-314
-317
-319
-315
-323
-325
-325
-314
-298
-297
-288
-278
-266
-250
-249
-239
-228
-204
-183
-182
-172
-164
-156
-151
-154
-156
-155
-146
-144
-156
-158
-162
-164
-170
-180
-184
-180
-163
-158
-158
-148
-139
-125
-118
-112
-100
-79
-49
-34
-21
-3
13
30
38
45
51
65
85
80
83
86
87
91
82
78
75
83
95
91
98
106
117
132
133
145
158
185
210
219
236
252
270
285
292
303
315
336
348
347
354
358
365
366
362
361
366
382
386
386
395
403
417
423
430
441
461
490
506
521
541
562
586
602
621
641
673
712
726
749
772
794
817
828
841
853
871
891
889
896
900
905
912
902
900
900
911
919
913
915
916
919
921
915
915
917
929
934
926
928
926
926
918
903
890
880
878
860
834
813
787
763
728
691
657
630
610
579
546
518
492
470
439
412
386
372
365
335
316
298
281
267
244
225
207
198
191
162
144
122
101
80
44
14
-14
-34
-56
-92
-120
-148
-173
-200
-232
-258
-280
-289
-305
-331
-346
-360
-369
-383
-401
-413
-417
-410
-418
-429
-433
-440
-444
-458
-474
-489
-499
-503
-521
-542
-559
-579
-594
-622
-645
-666
-673
-673
-694
-705
-713
-720
-723
-735
-741
-746
-739
-729
-740
-735
-732
-726
-719
-724
-722
-719
-706
-698
-703
-702
-704
-707
-714
-729
-741
-749
-745
-751
-766
-772
-779
-781
-789
-799
-804
-801
-787
-787
-788
-781
-775
-763
-758
-752
-743
-727
-704
-695
-687
-677
-668
-658
-663
-663
-664
-655
-642
-651
-653
-654
-654
-652
-658
-660
-660
-646
-630
-637
-629
-622
-612
-600
-597
-588
-576
-554
-536
-529
-514
-501
-487
-477
-476
-471
-464
-447
-442
-449
-448
-451
-452
-461
-474
-483
-484
-474
-479
-485
-484
-483
-477
-478
-481
-480
-473
-457
-455
-453
-447
-439
-426
-428
-425
-420
-404
-386
-389
-386
-384
-382
-381
-391
-398
-405
-401
-396
-416
-420
-425
-427
-429
-438
-441
-440
-430
-423
-427
-422
-418
-410
-405
-407
-403
-395
-374
-364
-364
-356
-351
-345
-346
-352
-355
-353
-343
-351
-362
-368
-375
-380
-390
-402
-410
-411
-403
-409
-409
-405
-400
-389
-391
-386
-377
-356
-330
-320
-302
-284
-264
-244
-236
-224
-213
-190
-168
-171
-163
-158
-154
-152
-158
-161
-162
-154
-150
-158
-157
-156
-151
-149
-152
-148
-138
-116
-102
-97
-83
-70
-53
-43
-36
-25
-7
20
28
34
43
49
56
55
49
44
44
51
38
29
22
14
12
-5
-15
-21
-16
-5
-10
-8
-5
1
10
7
12
18
38
60
59
71
81
90
97
95
96
97
107
109
97
92
83
75
62
42
29
21
24
18
5
2
-2
0
-6
-12
-13
-6
13
17
19
28
35
45
49
52
55
66
82
77
77
77
76
77
62
51
40
37
38
22
13
6
0
-2
-17
-23
-26
-15
-4
-12
-6
-2
5
11
11
15
21
38
50
48
56
61
67
67
58
53
51
58
51
36
28
18
11
-5
-22
-35
-39
-33
-41
-50
-52
-54
-52
-56
-60
-63
-55
-40
-47
-45
-41
-38
-31
-38
-41
-45
-40
-33
-45
-50
-57
-64
-69
-90
-104
-117
-117
-118
-136
-143
-150
-153
-158
-167
-171
-171
-160
-153
-158
-152
-148
-140
-136
-138
-134
-126
-107
-102
-104
-101
-100
-97
-104
-115
-124
-128
-125
-137
-152
-162
-172
-179
-193
-205
-214
-211
-200
-211
-210
-208
-206
-200
-203
-201
-196
-180
-160
-158
-147
-137
-126
-114
-119
-115
-112
-98
-87
-95
-95
-99
-103
-110
-125
-135
-142
-138
-141
-154
-157
-160
-159
-162
-169
-169
-162
-143
-136
-135
-126
-118
-105
-101
-98
-92
-80
-62
-58
-58
-57
-57
-56
-66
-76
-86
-87
-81
-100
-108
-116
-122
-126
-138
-145
-150
-144
-135
-144
-141
-138
-133
-125
-129
-124
-116
-96
-79
-76
-66
-58
-49
-44
-46
-45
-42
-31
-28
-39
-42
-47
-49
-56
-69
-75
-75
-64
-65
-69
-65
-62
-53
-51
-47
-39
-24
0
13
23
38
53
71
76
83
90
107
128
123
125
126
125
124
112
103
95
97
102
85
82
79
78
79
68
66
67
81
93
92
100
107
116
123
123
127
135
152
160
155
159
159
161
154
141
131
126
129
116
100
91
81
76
64
53
46
47
56
55
53
55
59
66
62
63
66
81
101
99
105
111
116
121
117
114
110
116
124
106
102
94
87
81
64
54
47
50
51
42
41
39
41
40
32
30
34
50
59
56
64
71
82
86
86
90
99
117
119
118
122
122
125
118
108
100
97
101
93
84
79
75
74
61
55
49
57
71
65
67
71
76
82
81
84
88
105
124
119
130
138
147
155
151
151
152
159
161
149
144
137
133
125
110
99
93
98
93
78
72
65
61
51
39
31
32
43
39
35
38
40
46
46
43
42
46
57
50
43
37
29
25
4
-12
-27
-32
-32
-50
-62
-72
-79
-85
-100
-109
-116
-109
-99
-110
-106
-101
-94
-86
-86
-81
-73
-56
-45
-47
-42
-40
-37
-40
-52
-61
-68
-66
-76
-96
-108
-122
-133
-150
-170
-184
-190
-185
-195
-204
-207
-209
-207
-210
-213
-213
-206
-191
-191
-186
-180
-176
-169
-178
-181
-186
-182
-176
-190
-199
-211
-222
-233
-255
-271
-285
-284
-282
-303
-307
-312
-314
-315
-322
-323
-320
-305
-294
-293
-282
-271
-257
-246
-242
-234
-221
-199
-188
-187
-180
-175
-169
-173
-181
-187
-185
-174
-178
-183
-182
-180
-175
-173
-172
-167
-153
-130
-124
-111
-95
-78
-56
-46
-31
-13
14
43
55
71
86
99
113
111
115
117
131
143
132
132
131
130
128
119
114
114
124
129
123
127
130
137
142
140
144
154
175
186
190
202
212
224
226
224
225
231
245
240
232
228
220
213
199
183
168
163
165
147
139
132
127
126
114
107
104
111
121
116
118
121
126
134
129
131
133
147
156
143
138
127
113
92
62
34
6
-11
-34
-66
-86
-101
-107
-109
-108
-90
-57
-5
42
91
155
226
307
386
471
567
681
813
942
1080
1235
1402
1583
1768
1963
2167
2388
2624
2846
3086
3337
3599
3877
4158
4458
4775
5113
5467
5814
6180
6553
6933
7321
7700
8092
8489
8901
9313
9707
10108
10505
10898
11279
11642
11994
12329
12649
12930
13158
13347
13481
13560
13573
13519
13408
13245
13039
12771
12451
12094
11696
11269
10804
10313
9801
9277
8746
8192
7631
7074
6520
5977
5440
4921
4423
3954
3510
3056
2625
2207
1804
1417
1036
673
326
5
-295
-595
-867
-1122
-1360
-1579
-1799
-1996
-2177
-2333
-2479
-2628
-2758
-2879
-2987
-3087
-3184
-3267
-3340
-3394
-3447
-3505
-3546
-3583
-3611
-3640
-3670
-3691
-3703
-3701
-3710
-3723
-3726
-3729
-3726
-3731
-3735
-3733
-3722
-3702
-3693
-3685
-3671
-3656
-3638
-3629
-3618
-3605
-3580
-3549
-3543
-3526
-3508
-3491
-3472
-3463
-3450
-3437
-3415
-3392
-3389
-3376
-3365
-3356
-3345
-3349
-3345
-3339
-3324
-3311
-3310
-3302
-3294
-3282
-3273
-3269
-3260
-3247
-3222
-3204
-3196
-3179
-3162
-3142
-3126
-3115
-3099
-3076
-3042
-3023
-3007
-2985
-2965
-2940
-2925
-2912
-2896
-2875
-2847
-2832
-2819
-2804
-2789
-2770
-2764
-2753
-2742
-2718
-2687
-2678
-2660
-2641
-2620
-2595
-2578
-2556
-2531
-2495
-2455
-2435
-2401
-2367
-2332
-2296
-2272
-2243
-2212
-2171
-2135
-2113
-2084
-2059
-2033
-2011
-2000
-1985
-1967
-1937
-1917
-1909
-1891
-1875
-1854
-1840
-1830
-1814
-1792
-1759
-1741
-1724
-1700
-1678
-1651
-1631
-1612
-1588
-1558
-1520
-1495
-1473
-1448
-1424
-1397
-1387
-1373
-1360
-1337
-1312
-1310
-1301
-1292
-1283
-1273
-1273
-1268
-1262
-1243
-1221
-1222
-1207
-1193
-1177
-1157
-1148
-1130
-1108
-1076
-1045
-1027
-1000
-975
-949
-927
-913
-896
-876
-847
-829
-825
-813
-805
-795
-793
-795
-795
-787
-769
-765
-763
-753
-744
-730
-722
-716
-706
-689
-664
-651
-638
-619
-600
-577
-567
-552
-537
-512
-485
-479
-467
-456
-446
-436
-437
-436
-436
-425
-413
-426
-423
-421
-418
-412
-414
-410
-402
-384
-369
-364
-350
-336
-319
-305
-298
-284
-266
-238
-220
-214
-202
-193
-184
-184
-189
-192
-189
-179
-186
-197
-203
-211
-216
-226
-238
-246
-246
-238
-244
-246
-244
-241
-232
-237
-235
-232
-216
-197
-196
-189
-183
-176
-169
-174
-175
-177
-167
-158
-174
-178
-186
-194
-204
-223
-238
-250
-252
-258
-275
-283
-291
-296
-303
-316
-323
-324
-313
-310
-316
-313
-311
-305
-307
-311
-311
-304
-288
-291
-296
-297
-301
-303
-313
-328
-342
-352
-356
-379
-398
-415
-434
-448
-476
-499
-519
-529
-534
-555
-569
-580
-589
-593
-609
-616
-622
-612
-601
-612
-608
-606
-602
-601
-608
-611
-614
-608
-610
-626
-634
-646
-656
-671
-694
-710
-722
-721
-730
-746
-752
-759
-761
-770
-781
-786
-783
-769
-770
-771
-766
-761
-753
-750
-750
-748
-740
-726
-732
-733
-735
-738
-739
-757
-770
-783
-786
-786
-803
-813
-821
-827
-828
-842
-847
-849
-836
-823
-828
-820
-812
-801
-791
-787
-778
-766
-744
-728
-725
-714
-706
-697
-693
-697
-698
-695
-683
-683
-691
-692
-692
-688
-691
-694
-690
-676
-651
-638
-625
-605
-583
-558
-538
-516
-492
-459
-416
-395
-363
-330
-296
-258
-234
-206
-178
-142
-105
-85
-60
-36
-12
14
23
40
58
90
120
133
156
180
205
230
248
271
296
333
364
382
409
435
463
487
503
525
550
585
604
615
631
644
659
663
663
665
671
684
681
675
673
670
670
663
656
652
658
673
664
666
668
672
679
675
676
679
691
707
705
712
717
722
727
716
712
709
716
718
703
695
684
673
659
638
621
606
603
594
574
565
554
547
537
521
513
511
521
520
514
516
518
524
520
515
513
516
526
522
514
509
502
497
482
468
454
450
454
435
425
417
410
407
395
387
381
385
393
383
384
386
390
396
389
390
394
408
420
416
419
419
421
419
408
400
393
395
388
367
355
340
329
312
291
277
269
272
262
249
243
236
234
223
212
205
204
212
209
203
202
200
201
190
180
171
171
176
155
142
129
114
101
77
58
41
34
32
10
1
-7
-11
-12
-25
-30
-31
-22
-15
-21
-18
-17
-14
-13
-20
-22
-21
-10
-8
-18
-21
-27
-31
-41
-58
-71
-78
-75
-87
-103
-111
-120
-124
-136
-147
-154
-153
-144
-146
-148
-146
-142
-135
-139
-137
-133
-117
-95
-97
-89
-83
-76
-70
-74
-76
-78
-71
-63
-79
-83
-90
-97
-102
-121
-132
-140
-138
-138
-150
-154
-158
-160
-163
-173
-176
-175
-162
-157
-162
-158
-154
-148
-148
-153
-154
-151
-138
-143
-152
-157
-165
-171
-187
-205
-220
-230
-233
-247
-262
-273
-283
-288
-306
-317
-326
-321
-310
-320
-321
-320
-318
-312
-315
-314
-310
-295
-279
-287
-282
-279
-277
-276
-287
-294
-301
-300
-305
-324
-334
-346
-355
-366
-384
-395
-401
-393
-393
-402
-399
-396
-388
-385
-384
-378
-364
-338
-329
-320
-305
-292
-276
-268
-264
-258
-248
-233
-233
-235
-236
-238
-237
-251
-259
-265
-258
-246
-254
-253
-250
-245
-237
-239
-235
-230
-212
-191
-193
-179
-167
-153
-139
-134
-124
-113
-94
-82
-84
-79
-78
-77
-81
-94
-103
-108
-102
-106
-119
-122
-126
-126
-132
-139
-140
-133
-116
-115
-115
-109
-103
-95
-92
-91
-88
-77
-60
-58
-54
-48
-44
-37
-45
-48
-51
-45
-36
-46
-51
-57
-63
-66
-81
-89
-96
-88
-78
-90
-86
-82
-76
-68
-67
-61
-52
-32
-16
-12
2
15
30
42
45
53
63
83
92
90
94
95
97
90
79
70
69
77
68
59
56
53
53
49
45
45
53
69
69
74
82
91
106
107
115
124
144
166
171
180
187
194
201
193
191
188
197
206
191
190
186
184
181
172
168
168
179
186
181
188
194
202
209
208
214
225
248
259
262
273
282
293
294
293
293
300
314
310
303
298
289
281
265
247
230
221
220
199
185
174
163
158
139
127
118
119
125
115
113
111
111
115
104
102
101
112
122
111
110
106
103
95
80
67
55
53
45
25
15
4
-4
-15
-31
-41
-46
-39
-41
-50
-51
-51
-46
-50
-53
-53
-43
-25
-22
-21
-18
-16
-14
-20
-28
-35
-35
-30
-49
-61
-73
-84
-92
-112
-127
-139
-140
-137
-149
-152
-153
-152
-148
-158
-157
-155
-138
-123
-125
-118
-112
-106
-102
-106
-107
-107
-97
-96
-108
-112
-119
-124
-135
-154
-168
-176
-173
-183
-197
-204
-211
-213
-225
-236
-245
-245
-237
-241
-247
-247
-247
-243
-246
-247
-247
-236
-218
-225
-222
-219
-216
-212
-218
-222
-225
-221
-215
-228
-233
-239
-242
-243
-257
-263
-265
-255
-246
-253
-250
-247
-241
-236
-236
-230
-219
-196
-179
-174
-159
-145
-130
-120
-118
-112
-102
-82
-78
-81
-79
-80
-79
-88
-99
-106
-106
-97
-101
-107
-107
-107
-104
-109
-111
-110
-97
-77
-80
-72
-62
-52
-38
-35
-29
-23
-8
9
5
10
13
15
17
3
-4
-10
-6
-5
-17
-21
-27
-29
-34
-44
-49
-49
-38
-34
-42
-38
-36
-30
-29
-30
-26
-16
5
11
13
20
24
31
27
21
16
17
23
17
6
-3
-12
-17
-34
-47
-58
-57
-48
-63
-68
-70
-70
-66
-70
-69
-66
-51
-33
-35
-24
-15
-4
8
6
10
15
29
38
33
33
30
27
21
6
-4
-11
-7
-11
-26
-30
-35
-35
-40
-48
-51
-47
-30
-27
-26
-18
-10
3
8
12
20
32
52
57
59
64
66
70
59
51
42
44
49
32
22
14
5
-2
-17
-27
-34
-30
-21
-35
-32
-29
-24
-16
-20
-15
-7
12
27
31
42
52
63
69
66
66
68
78
77
62
55
43
33
16
-5
-22
-32
-31
-44
-58
-66
-73
-76
-85
-94
-97
-92
-78
-75
-72
-64
-57
-45
-47
-45
-42
-28
-12
-18
-19
-21
-24
-27
-41
-53
-66
-66
-64
-86
-91
-97
-100
-101
-109
-111
-109
-97
-87
-88
-80
-73
-64
-57
-57
-53
-44
-25
-17
-20
-16
-15
-13
-19
-32
-44
-51
-49
-64
-83
-96
-111
-120
-135
-150
-161
-165
-159
-166
-171
-171
-170
-163
-170
-169
-167
-152
-132
-131
-123
-114
-106
-97
-99
-98
-97
-84
-72
-86
-87
-91
-95
-99
-112
-121
-125
-120
-117
-126
-124
-123
-118
-116
-121
-120
-114
-95
-85
-84
-74
-65
-52
-46
-43
-37
-24
-3
-1
0
4
5
7
1
-9
-18
-22
-20
-35
-46
-54
-62
-65
-82
-92
-99
-95
-86
-94
-94
-92
-88
-81
-85
-80
-73
-51
-28
-28
-14
-4
8
17
18
22
27
39
45
36
34
28
24
15
0
-10
-14
-7
-10
-19
-19
-20
-16
-20
-25
-25
-18
0
2
3
11
18
29
34
36
40
49
63
55
50
43
33
24
-4
-28
-53
-66
-75
-98
-111
-119
-119
-109
-104
-80
-45
13
79
131
203
280
367
459
551
653
766
898
1034
1167
1322
1486
1666
1851
2038
2238
2449
2679
2906
3135
3380
3634
3902
4174
4458
4760
5082
5424
5760
6104
6459
6818
7182
7544
7908
8276
8655
9042
9407
9779
10149
10512
10870
11204
11533
11846
12146
12422
12645
12829
12961
13040
13064
13015
12916
12761
12566
12322
12014
11674
11293
10880
10436
9960
9464
8951
8436
7906
7360
6823
6288
5766
5253
4751
4274
3821
3396
2975
2561
2167
1783
1416
1052
699
363
51
-235
-518
-785
-1029
-1258
-1468
-1672
-1863
-2040
-2195
-2330
-2476
-2601
-2715
-2818
-2907
-3000
-3079
-3149
-3202
-3246
-3300
-3339
-3374
-3403
-3424
-3456
-3476
-3491
-3490
-3489
-3502
-3504
-3504
-3500
-3496
-3496
-3490
-3479
-3456
-3438
-3430
-3411
-3394
-3372
-3355
-3343
-3325
-3303
-3270
-3249
-3235
-3212
-3192
-3169
-3155
-3143
-3128
-3106
-3077
-3063
-3053
-3039
-3027
-3015
-3011
-3008
-3004
-2990
-2968
-2970
-2962
-2952
-2941
-2926
-2921
-2911
-2899
-2878
-2852
-2843
-2823
-2803
-2781
-2754
-2742
-2720
-2696
-2659
-2625
-2605
-2578
-2553
-2527
-2504
-2488
-2470
-2451
-2422
-2403
-2396
-2381
-2368
-2352
-2342
-2337
-2326
-2309
-2281
-2265
-2253
-2234
-2214
-2188
-2170
-2152
-2129
-2098
-2059
-2032
-2008
-1979
-1951
-1921
-1902
-1882
-1862
-1833
-1799
-1791
-1775
-1760
-1747
-1733
-1729
-1722
-1714
-1696
-1675
-1674
-1660
-1646
-1630
-1612
-1607
-1594
-1576
-1547
-1519
-1503
-1478
-1453
-1426
-1399
-1380
-1356
-1329
-1293
-1266
-1252
-1230
-1211
-1192
-1181
-1177
-1171
-1160
-1140
-1134
-1131
-1122
-1114
-1101
-1098
-1093
-1085
-1070
-1046
-1032
-1021
-1004
-986
-964
-952
-936
-918
-888
-852
-839
-818
-797
-777
-757
-747
-736
-726
-708
-689
-694
-688
-684
-679
-673
-680
-679
-675
-660
-647
-646
-637
-630
-619
-610
-607
-598
-584
-558
-540
-532
-514
-498
-479
-467
-461
-452
-438
-417
-412
-413
-409
-408
-405
-413
-421
-427
-427
-419
-423
-427
-427
-426
-421
-427
-428
-427
-413
-393
-395
-387
-378
-369
-359
-357
-352
-345
-329
-311
-318
-312
-310
-308
-307
-319
-327
-332
-329
-331
-344
-350
-357
-361
-367
-380
-386
-387
-376
-374
-381
-379
-379
-375
-377
-381
-381
-373
-355
-353
-352
-346
-342
-335
-337
-343
-347
-348
-342
-352
-363
-373
-385
-393
-416
-433
-448
-452
-450
-467
-476
-482
-486
-487
-496
-499
-500
-488
-472
-479
-470
-462
-452
-443
-443
-438
-431
-416
-406
-409
-405
-405
-405
-410
-424
-433
-439
-435
-440
-454
-458
-464
-466
-473
-481
-483
-477
-458
-455
-451
-441
-432
-419
-412
-406
-398
-383
-361
-354
-345
-336
-329
-319
-325
-327
-330
-323
-313
-323
-329
-334
-338
-341
-354
-360
-366
-355
-342
-351
-345
-339
-332
-324
-323
-316
-308
-289
-275
-273
-262
-255
-245
-240
-243
-243
-238
-224
-221
-228
-228
-231
-231
-239
-251
-260
-260
-250
-257
-264
-266
-267
-265
-269
-274
-276
-270
-255
-258
-256
-252
-247
-238
-242
-240
-235
-221
-204
-205
-201
-198
-195
-191
-200
-203
-205
-195
-185
-198
-196
-196
-193
-191
-194
-191
-184
-165
-151
-148
-134
-121
-103
-88
-79
-63
-40
-6
17
32
55
77
102
118
130
146
167
197
208
217
229
238
249
254
257
263
277
299
301
309
320
331
346
348
357
368
390
416
426
444
461
479
499
505
517
528
553
574
573
581
586
591
592
584
578
574
579
578
563
559
552
548
539
524
515
511
517
514
504
502
500
503
498
492
489
493
506
501
494
490
484
478
465
449
432
422
418
390
368
347
326
308
278
254
232
221
215
193
180
168
158
153
134
125
117
124
130
119
118
117
117
114
104
97
91
94
89
70
60
47
35
18
-6
-25
-38
-39
-52
-70
-80
-89
-92
-104
-116
-125
-125
-115
-119
-124
-125
-125
-124
-129
-135
-140
-135
-124
-138
-144
-150
-159
-165
-184
-201
-217
-225
-231
-255
-270
-284
-297
-306
-329
-341
-351
-347
-345
-357
-359
-362
-361
-362
-369
-371
-369
-355
-348
-354
-351
-350
-349
-354
-365
-374
-377
-371
-379
-393
-402
-414
-421
-438
-455
-467
-471
-466
-473
-482
-484
-485
-482
-487
-488
-487
-474
-453
-457
-449
-440
-430
-418
-417
-413
-408
-395
-379
-384
-379
-376
-373
-368
-379
-382
-385
-376
-369
-376
-375
-375
-371
-370
-374
-374
-370
-354
-346
-348
-339
-332
-322
-317
-316
-311
-300
-279
-272
-271
-263
-258
-250
-252
-257
-259
-257
-247
-251
-259
-263
-267
-268
-279
-287
-294
-289
-277
-289
-291
-292
-292
-290
-296
-298
-299
-288
-273
-278
-271
-265
-258
-249
-254
-252
-248
-235
-225
-230
-230
-231
-232
-238
-251
-260
-266
-260
-263
-276
-280
-285
-287
-294
-306
-313
-313
-302
-305
-310
-307
-303
-295
-294
-293
-288
-278
-261
-257
-256
-251
-248
-242
-251
-256
-261
-256
-247
-261
-265
-268
-269
-269
-276
-279
-282
-272
-259
-268
-262
-256
-248
-238
-239
-231
-221
-199
-180
-173
-159
-147
-134
-124
-123
-119
-114
-99
-94
-103
-105
-111
-114
-123
-137
-147
-149
-141
-147
-154
-155
-157
-153
-156
-159
-158
-149
-132
-127
-121
-111
-100
-84
-82
-74
-66
-46
-22
-20
-11
-4
2
7
1
-3
-6
1
11
-2
-1
-2
0
3
-3
-2
2
17
29
31
42
52
65
77
82
93
108
133
149
153
165
174
184
185
181
178
181
192
184
173
168
161
156
145
133
124
122
129
122
117
116
116
121
113
111
112
126
144
145
152
160
169
178
175
176
175
186
197
182
180
174
167
159
141
129
119
118
114
99
93
87
85
82
71
68
71
86
93
92
100
108
120
125
127
132
144
164
166
166
170
170
172
166
156
146
142
143
127
114
103
92
87
66
53
42
42
48
37
34
32
33
37
31
33
37
54
72
67
76
81
87
92
87
84
82
88
88
73
65
54
45
32
12
-2
-11
-8
-14
-27
-30
-33
-31
-34
-38
-37
-27
-7
-1
4
16
26
40
47
50
55
66
84
80
79
78
74
72
54
40
28
25
26
11
1
-8
-15
-18
-34
-40
-45
-34
-21
-29
-24
-20
-13
-7
-8
-5
0
15
23
16
18
15
13
5
-12
-26
-37
-40
-56
-81
-98
-115
-128
-149
-171
-188
-196
-195
-207
-220
-226
-231
-232
-237
-243
-244
-236
-220
-224
-221
-217
-213
-207
-216
-221
-226
-223
-219
-232
-240
-250
-259
-265
-285
-296
-305
-299
-292
-303
-301
-297
-291
-285
-284
-279
-269
-249
-234
-231
-218
-207
-194
-186
-185
-181
-174
-159
-156
-163
-165
-169
-172
-184
-200
-214
-220
-218
-228
-239
-245
-250
-251
-258
-264
-268
-262
-248
-257
-257
-255
-253
-248
-255
-257
-257
-248
-236
-241
-239
-238
-236
-233
-244
-248
-251
-242
-235
-247
-249
-253
-255
-258
-266
-271
-272
-261
-257
-264
-260
-257
-251
-248
-251
-249
-240
-219
-210
-207
-194
-183
-168
-162
-158
-151
-136
-114
-106
-101
-93
-86
-79
-80
-81
-81
-71
-54
-61
-58
-54
-49
-42
-45
-45
-42
-30
-16
-18
-12
-5
3
15
12
18
26
46
64
65
75
83
91
95
91
90
90
99
99
86
82
75
72
63
50
42
40
50
46
38
38
37
41
36
31
31
39
57
63
67
76
85
96
97
100
104
117
136
129
130
131
129
130
120
113
108
110
117
103
101
98
97
98
85
82
82
94
104
102
110
117
128
137
139
145
156
176
187
186
193
197
202
199
191
184
181
188
180
167
161
154
150
138
126
119
119
127
123
118
118
120
125
121
121
122
136
155
152
157
163
168
173
167
164
159
163
168
149
142
132
124
117
97
85
75
77
77
66
63
59
59
57
50
49
54
71
80
79
88
95
105
108
106
107
113
127
124
116
112
104
98
82
65
51
42
42
30
17
8
1
-1
-14
-22
-28
-20
-7
-15
-13
-10
-5
2
1
4
8
23
39
32
37
40
42
44
32
24
16
16
11
-7
-16
-26
-33
-42
-57
-66
-69
-59
-57
-63
-58
-54
-45
-40
-38
-31
-15
11
23
31
45
57
71
75
76
79
86
98
94
89
84
77
73
55
42
31
32
39
27
23
21
20
22
14
10
9
20
34
24
30
34
39
43
36
32
29
34
33
18
8
-5
-17
-34
-59
-81
-100
-109
-128
-159
-181
-203
-221
-244
-267
-282
-285
-273
-270
-260
-235
-201
-154
-104
-49
16
92
181
260
346
438
535
642
742
857
984
1134
1300
1459
1636
1826
2024
2234
2442
2668
2905
3167
3440
3699
3984
4280
4591
4912
5236
5573
5920
6283
6644
6995
7356
7717
8081
8442
8794
9149
9504
9864
10206
10527
10846
11151
11441
11703
11936
12139
12307
12435
12496
12502
12460
12363
12218
12018
11771
11485
11167
10820
10423
10003
9560
9096
8617
8109
7597
7080
6571
6068
5554
5058
4579
4117
3675
3236
2818
2415
2039
1676
1304
959
627
311
12
-276
-541
-784
-998
-1201
-1399
-1575
-1741
-1892
-2036
-2174
-2297
-2404
-2492
-2581
-2671
-2744
-2812
-2871
-2931
-2988
-3036
-3071
-3093
-3126
-3155
-3176
-3193
-3204
-3215
-3224
-3226
-3216
-3194
-3187
-3170
-3148
-3125
-3095
-3079
-3055
-3029
-2992
-2953
-2930
-2901
-2874
-2847
-2820
-2808
-2790
-2775
-2749
-2725
-2726
-2716
-2710
-2704
-2701
-2705
-2706
-2705
-2692
-2685
-2689
-2682
-2675
-2664
-2655
-2651
-2642
-2626
-2598
-2581
-2571
-2552
-2533
-2510
-2495
-2482
-2466
-2442
-2410
-2395
-2383
-2366
-2351
-2335
-2326
-2320
-2314
-2300
-2281
-2283
-2278
-2272
-2265
-2255
-2256
-2251
-2243
-2224
-2201
-2193
-2177
-2160
-2142
-2120
-2112
-2095
-2076
-2043
-2010
-1996
-1970
-1946
-1921
-1900
-1886
-1870
-1851
-1825
-1806
-1802
-1791
-1783
-1774
-1770
-1773
-1771
-1764
-1745
-1738
-1736
-1726
-1716
-1703
-1697
-1692
-1683
-1665
-1638
-1624
-1611
-1593
-1574
-1552
-1537
-1522
-1506
-1481
-1451
-1444
-1430
-1417
-1405
-1391
-1392
-1389
-1387
-1376
-1364
-1368
-1363
-1358
-1351
-1341
-1344
-1336
-1326
-1301
-1278
-1271
-1253
-1235
-1215
-1196
-1183
-1165
-1144
-1112
-1087
-1076
-1057
-1042
-1026
-1017
-1015
-1011
-1003
-985
-982
-987
-985
-986
-983
-989
-995
-997
-990
-974
-969
-966
-956
-946
-932
-926
-918
-907
-885
-856
-850
-834
-817
-800
-780
-771
-760
-749
-730
-710
-710
-702
-697
-691
-685
-695
-697
-697
-686
-676
-680
-674
-669
-659
-650
-647
-639
-627
-603
-586
-581
-566
-552
-536
-523
-516
-504
-486
-459
-447
-441
-430
-421
-410
-410
-413
-414
-409
-398
-401
-406
-408
-410
-409
-418
-423
-426
-418
-402
-411
-408
-404
-399
-390
-389
-383
-376
-357
-334
-331
-316
-302
-288
-273
-273
-266
-259
-242
-230
-233
-230
-229
-227
-230
-240
-245
-248
-241
-242
-254
-255
-257
-255
-258
-264
-266
-260
-243
-240
-239
-231
-223
-210
-205
-201
-193
-180
-161
-154
-150
-144
-139
-133
-140
-144
-150
-145
-134
-146
-150
-153
-155
-156
-166
-172
-177
-171
-161
-173
-170
-168
-164
-157
-162
-158
-151
-133
-118
-116
-107
-101
-93
-88
-92
-92
-89
-78
-76
-87
-89
-94
-96
-104
-117
-125
-127
-117
-121
-127
-126
-125
-119
-120
-120
-115
-103
-81
-70
-60
-45
-29
-9
-2
9
20
42
68
69
77
84
88
93
86
82
77
84
93
79
80
80
83
87
82
84
89
105
117
119
130
141
155
167
174
186
202
229
246
251
265
275
287
289
286
286
290
301
295
285
279
273
269
258
248
241
241
249
245
242
243
246
255
252
256
264
284
309
314
327
341
354
368
370
376
380
395
410
399
400
397
395
393
380
374
370
378
382
377
381
384
392
399
400
408
422
449
466
475
493
510
531
544
554
565
582
606
612
614
619
620
621
613
601
590
584
584
568
554
543
531
525
504
490
478
478
483
470
465
462
460
460
450
446
443
453
463
447
444
438
431
421
401
383
365
355
339
309
287
263
241
216
184
159
140
133
117
94
80
66
56
40
22
9
5
11
0
-12
-19
-28
-36
-50
-68
-86
-99
-106
-132
-156
-179
-204
-226
-262
-293
-322
-339
-352
-379
-398
-415
-428
-438
-460
-473
-485
-482
-477
-495
-498
-502
-503
-505
-512
-516
-518
-510
-509
-522
-527
-534
-541
-552
-570
-584
-595
-596
-607
-626
-635
-643
-647
-658
-668
-674
-669
-654
-654
-654
-647
-641
-632
-629
-627
-623
-612
-593
-594
-589
-584
-580
-573
-582
-586
-589
-583
-576
-585
-590
-595
-599
-601
-617
-623
-629
-620
-610
-620
-616
-613
-607
-603
-604
-600
-593
-575
-561
-560
-548
-538
-525
-516
-514
-509
-499
-479
-473
-475
-471
-471
-467
-474
-483
-490
-489
-478
-482
-487
-486
-486
-482
-484
-485
-485
-475
-456
-458
-452
-443
-434
-421
-420
-413
-405
-388
-367
-364
-355
-347
-340
-331
-339
-339
-340
-329
-322
-334
-336
-340
-341
-345
-353
-358
-359
-348
-343
-350
-347
-344
-337
-334
-336
-332
-321
-297
-285
-279
-264
-250
-233
-225
-220
-213
-198
-177
-171
-169
-164
-162
-158
-163
-167
-170
-163
-149
-158
-156
-153
-148
-140
-143
-140
-136
-122
-104
-103
-92
-81
-66
-47
-44
-32
-18
7
29
34
47
56
66
72
69
67
66
72
71
55
49
40
35
25
10
-1
-5
2
-2
-10
-10
-11
-7
-12
-16
-15
-6
11
16
17
22
25
30
25
19
13
17
27
10
1
-9
-19
-27
-44
-57
-66
-65
-59
-70
-70
-70
-67
-60
-66
-62
-55
-35
-17
-13
1
13
28
39
42
47
54
69
75
66
66
61
58
49
33
21
15
20
11
0
-4
-7
-5
-10
-15
-15
-8
7
11
14
22
31
43
45
50
57
75
98
97
103
108
111
115
109
104
98
100
103
83
76
67
60
57
40
33
29
37
42
35
36
35
38
38
32
31
34
50
58
55
62
66
73
73
67
65
69
80
75
64
58
48
41
23
4
-12
-21
-23
-35
-49
-57
-64
-67
-80
-88
-93
-85
-71
-78
-75
-70
-64
-55
-55
-51
-47
-32
-17
-24
-20
-19
-19
-18
-30
-37
-44
-41
-43
-57
-63
-71
-76
-83
-96
-104
-106
-96
-94
-102
-99
-97
-91
-90
-91
-87
-76
-55
-50
-48
-40
-36
-30
-34
-42
-48
-50
-47
-58
-72
-84
-97
-105
-127
-143
-158
-160
-155
-170
-175
-179
-181
-179
-185
-186
-184
-170
-153
-158
-148
-139
-128
-117
-117
-113
-106
-92
-83
-87
-85
-87
-88
-95
-111
-123
-131
-128
-134
-151
-157
-163
-165
-173
-182
-186
-182
-166
-165
-165
-156
-147
-134
-127
-121
-112
-98
-76
-70
-64
-57
-52
-44
-53
-58
-65
-61
-54
-69
-76
-83
-89
-92
-105
-111
-115
-105
-93
-104
-99
-95
-88
-81
-80
-75
-65
-47
-33
-31
-21
-14
-6
-1
-6
-7
-5
5
4
-8
-12
-19
-23
-34
-47
-56
-56
-45
-48
-52
-48
-45
-38
-36
-35
-31
-20
-2
2
8
18
27
41
39
43
47
60
75
71
71
71
70
69
54
44
33
33
33
8
-5
-21
-35
-50
-70
-83
-90
-86
-82
-86
-74
-55
-23
15
54
107
171
255
333
407
493
582
680
774
871
978
1101
1244
1381
1529
1696
1873
2066
2264
2473
2693
2932
3190
3443
3714
3999
4297
4611
4920
5245
5579
5931
6293
6646
7011
7381
7754
8132
8497
8868
9236
9614
9985
10327
10671
11002
11320
11620
11895
12149
12377
12581
12737
12834
12887
12883
12822
12701
12521
12297
12033
11737
11390
11002
10592
10156
9700
9215
8714
8209
7707
7214
6708
6208
5724
5253
4799
4354
3923
3508
3114
2740
2359
1998
1653
1322
1009
697
406
132
-119
-353
-590
-807
-1014
-1207
-1388
-1570
-1734
-1885
-2011
-2127
-2252
-2356
-2452
-2539
-2619
-2697
-2765
-2821
-2862
-2901
-2947
-2978
-3006
-3027
-3047
-3070
-3084
-3091
-3084
-3086
-3092
-3089
-3085
-3077
-3076
-3076
-3072
-3060
-3039
-3033
-3027
-3016
-3005
-2991
-2985
-2980
-2975
-2961
-2940
-2943
-2937
-2932
-2928
-2921
-2927
-2930
-2931
-2923
-2912
-2917
-2912
-2907
-2900
-2889
-2891
-2884
-2874
-2849
-2824
-2816
-2797
-2778
-2756
-2734
-2718
-2697
-2672
-2637
-2607
-2590
-2565
-2543
-2518
-2498
-2486
-2471
-2451
-2422
-2407
-2399
-2385
-2372
-2355
-2348
-2341
-2330
-2310
-2282
-2265
-2251
-2230
-2210
-2187
-2171
-2154
-2135
-2105
-2068
-2054
-2030
-2006
-1982
-1957
-1943
-1926
-1910
-1886
-1860
-1855
-1841
-1830
-1820
-1810
-1816
-1813
-1808
-1792
-1777
-1777
-1768
-1759
-1746
-1734
-1728
-1715
-1697
-1667
-1644
-1631
-1609
-1588
-1564
-1545
-1532
-1514
-1492
-1460
-1443
-1433
-1418
-1406
-1393
-1391
-1391
-1390
-1383
-1369
-1368
-1370
-1368
-1366
-1361
-1365
-1365
-1364
-1350
-1329
-1330
-1321
-1310
-1297
-1281
-1273
-1262
-1248
-1223
-1196
-1187
-1169
-1152
-1136
-1118
-1116
-1107
-1096
-1075
-1059
-1058
-1052
-1050
-1046
-1046
-1054
-1056
-1054
-1041
-1035
-1040
-1035
-1031
-1023
-1019
-1019
-1014
-1000
-974
-962
-953
-936
-921
-903
-894
-887
-878
-864
-844
-837
-835
-831
-828
-824
-833
-840
-847
-842
-831
-843
-844
-844
-841
-836
-837
-833
-826
-808
-785
-783
-766
-750
-731
-709
-699
-682
-661
-630
-603
-589
-569
-551
-532
-516
-509
-498
-485
-463
-449
-448
-438
-430
-419
-413
-412
-406
-392
-368
-357
-348
-332
-318
-298
-287
-275
-259
-237
-207
-189
-172
-151
-132
-111
-105
-97
-90
-72
-52
-56
-53
-52
-52
-52
-62
-68
-74
-68
-58
-69
-65
-61
-54
-44
-45
-39
-30
-11
4
8
19
28
40
50
51
57
66
86
96
95
102
105
111
109
103
99
101
113
109
105
108
110
117
119
120
126
138
158
165
171
181
191
205
206
213
221
243
268
274
286
298
309
321
322
327
330
344
359
348
349
347
346
346
336
331
328
335
339
331
332
332
336
338
333
335
341
359
370
371
382
391
404
411
413
418
429
449
452
451
455
456
458
451
440
431
428
432
420
411
405
400
400
387
381
378
387
400
395
397
401
408
417
417
423
431
452
475
473
486
497
507
516
515
516
519
529
534
525
524
521
519
514
502
495
492
501
501
493
494
494
499
497
494
496
507
529
535
542
555
568
583
592
599
608
622
642
643
647
650
651
655
643
637
631
635
643
633
631
629
628
629
620
617
617
631
647
641
649
655
663
670
668
670
673
683
686
675
670
660
651
636
611
588
566
554
529
495
468
439
414
380
345
314
292
280
253
226
206
186
170
149
128
109
98
94
71
54
37
18
2
-30
-59
-89
-110
-130
-168
-202
-236
-270
-302
-346
-381
-415
-434
-452
-489
-511
-532
-550
-567
-588
-604
-615
-616
-621
-638
-645
-654
-661
-672
-691
-706
-717
-719
-734
-757
-774
-794
-811
-837
-866
-891
-907
-913
-933
-952
-965
-976
-982
-993
-1004
-1011
-1009
-998
-1008
-1008
-1007
-1005
-999
-1006
-1008
-1009
-1000
-988
-993
-992
-992
-991
-989
-1002
-1007
-1012
-1005
-999
-1012
-1014
-1017
-1018
-1021
-1029
-1031
-1029
-1017
-1011
-1018
-1013
-1010
-1003
-999
-1002
-999
-990
-969
-960
-957
-946
-936
-924
-922
-921
-917
-906
-887
-884
-883
-879
-877
-873
-877
-881
-885
-879
-866
-875
-874
-871
-868
-861
-866
-865
-862
-849
-833
-832
-821
-809
-794
-775
-769
-754
-738
-709
-682
-673
-655
-640
-626
-615
-612
-608
-602
-587
-579
-585
-582
-581
-577
-577
-583
-584
-578
-562
-556
-556
-548
-540
-527
-522
-518
-509
-492
-467
-455
-445
-431
-419
-405
-400
-397
-394
-383
-366
-375
-375
-374
-374
-371
-378
-382
-383
-375
-363
-368
-363
-357
-349
-337
-339
-331
-319
-294
-269
-258
-237
-216
-192
-170
-154
-135
-114
-83
-62
-55
-40
-29
-18
-14
-18
-19
-14
1
2
-1
2
4
10
7
4
5
13
30
35
38
46
54
66
68
72
78
95
116
112
117
121
123
126
118
112
105
106
109
91
84
75
67
61
42
31
23
27
29
20
20
19
22
23
17
18
23
40
50
49
58
65
73
74
70
68
71
81
76
65
58
49
42
26
9
-5
-13
-12
-21
-31
-35
-39
-37
-47
-52
-55
-45
-29
-34
-29
-23
-15
-6
-6
-4
-1
11
23
12
13
11
8
4
-13
-25
-34
-33
-36
-51
-57
-64
-67
-71
-82
-87
-87
-73
-67
-71
-65
-61
-53
-51
-52
-49
-38
-19
-15
-15
-11
-10
-7
-13
-22
-30
-32
-29
-39
-52
-62
-71
-77
-95
-108
-118
-116
-107
-118
-121
-121
-119
-115
-118
-116
-113
-97
-78
-82
-71
-62
-52
-41
-42
-38
-32
-18
-9
-13
-12
-15
-17
-25
-40
-50
-57
-53
-58
-73
-78
-84
-86
-93
-103
-109
-106
-92
-93
-94
-88
-82
-73
-70
-69
-65
-56
-41
-40
-41
-41
-41
-40
-56
-68
-80
-82
-81
-99
-110
-121
-130
-136
-152
-161
-169
-162
-153
-166
-164
-162
-158
-152
-154
-149
-141
-122
-107
-103
-91
-82
-70
-63
-65
-62
-57
-42
-40
-48
-50
-55
-59
-70
-85
-97
-100
-93
-101
-110
-113
-116
-115
-121
-128
-132
-131
-122
-128
-132
-133
-134
-131
-143
-150
-157
-154
-148
-160
-166
-172
-176
-179
-193
-203
-213
-209
-203
-221
-225
-230
-232
-231
-235
-230
-218
-191
-161
-135
-91
-39
25
95
165
247
339
449
551
649
758
871
993
1114
1240
1379
1537
1714
1885
2063
2254
2453
2664
2878
3101
3336
3587
3854
4112
4385
4668
4961
5264
5559
5863
6169
6482
6794
7086
7380
7671
7962
8251
8524
8799
9068
9341
9606
9840
10079
10306
10519
10707
10858
10974
11050
11090
11079
11005
10893
10735
10537
10297
10012
9695
9349
8984
8583
8152
7712
7258
6800
6331
5860
5396
4945
4513
4078
3659
3262
2882
2522
2174
1841
1523
1225
946
659
390
134
-107
-331
-554
-758
-947
-1114
-1267
-1425
-1566
-1698
-1819
-1929
-2044
-2142
-2231
-2296
-2354
-2425
-2477
-2524
-2563
-2599
-2637
-2665
-2687
-2695
-2705
-2726
-2733
-2740
-2742
-2745
-2752
-2752
-2744
-2724
-2713
-2708
-2693
-2678
-2659
-2647
-2635
-2620
-2596
-2563
-2546
-2530
-2510
-2490
-2469
-2455
-2444
-2432
-2413
-2389
-2389
-2381
-2376
-2372
-2367
-2377
-2383
-2387
-2383
-2375
-2384
-2384
-2384
-2381
-2374
-2378
-2373
-2365
-2343
-2322
-2317
-2301
-2284
-2264
-2245
-2232
-2215
-2195
-2165
-2142
-2133
-2116
-2102
-2088
-2080
-2079
-2075
-2067
-2049
-2045
-2047
-2041
-2035
-2024
-2021
-2018
-2010
-1992
-1966
-1953
-1942
-1926
-1910
-1890
-1876
-1862
-1847
-1820
-1786
-1774
-1754
-1732
-1711
-1688
-1677
-1663
-1649
-1626
-1602
-1596
-1583
-1572
-1561
-1547
-1549
-1541
-1532
-1509
-1489
-1484
-1469
-1454
-1437
-1421
-1411
-1395
-1375
-1345
-1320
-1308
-1285
-1264
-1239
-1220
-1206
-1188
-1165
-1132
-1114
-1102
-1085
-1071
-1055
-1050
-1047
-1043
-1032
-1015
-1010
-1008
-1002
-996
-988
-987
-983
-978
-962
-937
-936
-923
-909
-893
-874
-863
-848
-831
-804
-773
-761
-740
-720
-700
-678
-673
-661
-648
-624
-605
-602
-593
-586
-577
-572
-575
-573
-569
-553
-544
-547
-541
-536
-529
-526
-527
-524
-514
-493
-485
-483
-473
-465
-454
-454
-456
-456
-451
-439
-441
-447
-451
-457
-461
-478
-491
-504
-504
-497
-513
-517
-519
-520
-516
-520
-520
-517
-504
-486
-488
-477
-466
-453
-436
-433
-421
-407
-383
-363
-357
-346
-338
-329
-324
-328
-330
-330
-322
-323
-337
-342
-349
-352
-361
-373
-378
-376
-363
-362
-363
-357
-349
-337
-332
-327
-318
-302
-277
-264
-252
-237
-222
-206
-204
-200
-198
-185
-170
-178
-178
-179
-181
-183
-193
-198
-202
-195
-183
-192
-186
-180
-171
-160
-159
-148
-134
-109
-87
-76
-58
-40
-21
-5
2
13
27
50
63
63
71
75
81
78
70
65
66
76
70
62
61
59
61
56
52
52
59
73
76
78
85
93
105
105
110
117
136
160
163
173
183
192
202
201
204
206
218
232
222
224
225
226
228
219
217
217
227
234
229
232
234
237
238
232
234
240
259
269
269
278
287
298
303
303
307
316
335
335
332
333
331
330
320
307
297
293
296
285
275
268
262
260
245
236
230
236
247
239
240
242
247
254
252
255
259
276
294
288
296
302
309
314
309
308
308
317
320
310
308
304
302
298
287
282
282
294
297
292
297
301
310
312
313
318
333
358
369
380
396
412
429
440
448
458
473
493
496
501
505
507
512
501
495
490
494
502
492
488
484
481
481
469
464
460
471
485
475
480
485
490
495
493
493
494
504
506
495
489
479
468
451
423
398
376
363
338
303
277
248
222
190
155
125
103
92
65
39
19
0
-15
-34
-54
-71
-80
-82
-103
-119
-135
-152
-166
-196
-221
-247
-266
-282
-318
-348
-378
-408
-435
-475
-507
-536
-550
-563
-595
-613
-630
-643
-654
-669
-677
-681
-672
-668
-674
-671
-669
-664
-664
-671
-674
-675
-666
-670
-684
-692
-703
-711
-728
-748
-763
-769
-766
-777
-787
-791
-794
-792
-795
-797
-797
-787
-770
-772
-765
-756
-747
-733
-732
-726
-720
-704
-686
-685
-680
-675
-671
-666
-677
-682
-687
-680
-675
-691
-695
-699
-701
-704
-712
-714
-713
-699
-690
-691
-682
-672
-659
-649
-644
-635
-619
-591
-576
-567
-550
-536
-519
-512
-508
-502
-489
-470
-467
-469
-466
-465
-463
-467
-472
-475
-469
-456
-463
-461
-457
-451
-441
-442
-436
-428
-409
-387
-380
-365
-349
-331
-311
-305
-292
-278
-253
-231
-228
-217
-211
-204
-202
-208
-212
-214
-205
-204
-215
-216
-219
-218
-221
-229
-232
-228
-212
-207
-208
-201
-195
-184
-182
-180
-174
-160
-138
-130
-127
-121
-116
-110
-114
-120
-126
-123
-115
-130
-137
-142
-146
-148
-160
-167
-172
-166
-156
-164
-160
-155
-147
-137
-140
-134
-125
-103
-83
-79
-67
-56
-44
-36
-36
-32
-27
-12
-6
-15
-15
-18
-20
-28
-43
-54
-60
-54
-60
-70
-71
-72
-66
-67
-66
-60
-45
-20
-9
0
12
23
36
41
48
56
77
107
115
139
169
205
251
296
354
421
504
598
678
777
882
996
1120
1240
1378
1530
1706
1888
2067
2264
2470
2692
2926
3167
3427
3707
4013
4328
4645
4987
5341
5711
6089
6472
6867
7274
7693
8096
8493
8893
9289
9688
10077
10463
10846
11225
11600
11950
12283
12603
12901
13176
13410
13608
13759
13869
13929
13907
13838
13716
13541
13319
13042
12723
12362
11968
11534
11039
10516
9957
9371
8766
8134
7503
6877
6269
5669
5071
4498
3942
3411
2898
2401
1930
1486
1075
678
291
-63
-396
-704
-995
-1268
-1516
-1736
-1928
-2119
-2297
-2455
-2600
-2729
-2856
-2974
-3077
-3165
-3236
-3312
-3381
-3438
-3488
-3527
-3571
-3605
-3631
-3641
-3640
-3656
-3660
-3658
-3653
-3644
-3641
-3633
-3624
-3602
-3578
-3576
-3559
-3544
-3529
-3513
-3511
-3504
-3496
-3478
-3466
-3467
-3461
-3458
-3453
-3453
-3459
-3459
-3456
-3441
-3433
-3436
-3428
-3420
-3408
-3402
-3399
-3391
-3375
-3350
-3339
-3329
-3312
-3295
-3273
-3258
-3243
-3224
-3200
-3168
-3149
-3130
-3109
-3087
-3063
-3052
-3037
-3020
-2991
-2956
-2942
-2920
-2897
-2873
-2847
-2830
-2809
-2786
-2750
-2711
-2696
-2665
-2635
-2603
-2569
-2544
-2513
-2479
-2435
-2395
-2366
-2330
-2297
-2263
-2233
-2213
-2189
-2162
-2126
-2102
-2088
-2067
-2050
-2030
-2016
-2007
-1993
-1971
-1939
-1922
-1906
-1884
-1863
-1838
-1820
-1802
-1781
-1754
-1719
-1697
-1673
-1647
-1621
-1589
-1573
-1552
-1532
-1501
-1468
-1454
-1436
-1420
-1404
-1388
-1386
-1379
-1372
-1353
-1332
-1335
-1323
-1313
-1300
-1287
-1281
-1269
-1254
-1228
-1206
-1195
-1174
-1155
-1133
-1113
-1101
-1083
-1062
-1031
-1011
-1002
-987
-974
-961
-957
-959
-958
-952
-938
-942
-948
-948
-949
-947
-950
-954
-954
-946
-929
-927
-920
-909
-896
-879
-875
-864
-851
-827
-799
-788
-771
-756
-741
-726
-726
-720
-716
-699
-684
-693
-689
-688
-686
-686
-694
-696
-695
-685
-678
-683
-678
-673
-665
-660
-660
-655
-645
-623
-611
-607
-595
-585
-571
-564
-560
-554
-541
-520
-517
-516
-511
-508
-506
-511
-519
-527
-528
-522
-534
-541
-545
-548
-547
-557
-561
-562
-551
-536
-536
-528
-518
-507
-494
-493
-483
-473
-449
-425
-424
-410
-399
-387
-379
-380
-378
-376
-365
-363
-374
-377
-383
-386
-393
-405
-412
-412
-400
-398
-404
-400
-397
-389
-388
-389
-385
-372
-351
-344
-338
-327
-316
-306
-302
-302
-302
-295
-282
-292
-295
-298
-304
-307
-325
-339
-351
-354
-354
-369
-376
-381
-383
-380
-389
-389
-385
-367
-349
-349
-337
-327
-316
-306
-302
-295
-286
-268
-257
-260
-255
-253
-250
-252
-262
-269
-272
-266
-271
-283
-287
-292
-293
-302
-311
-315
-309
-294
-292
-291
-285
-279
-270
-268
-265
-261
-246
-222
-222
-213
-203
-195
-184
-186
-185
-184
-175
-165
-174
-175
-178
-181
-181
-196
-202
-206
-196
-188
-197
-194
-193
-189
-188
-192
-190
-185
-167
-156
-156
-145
-134
-120
-110
-106
-97
-84
-61
-52
-50
-42
-36
-28
-31
-35
-37
-32
-19
-19
-21
-17
-14
-7
-7
-4
1
18
44
45
58
71
86
103
113
126
142
168
198
208
228
247
266
287
292
304
318
342
363
367
379
390
403
414
419
429
442
468
487
494
512
529
549
566
579
597
622
658
681
699
724
747
774
789
802
817
837
863
873
878
885
888
891
881
872
862
863
868
849
840
832
824
817
802
790
779
779
782
765
760
754
749
747
731
724
719
723
723
709
701
690
678
661
635
613
592
578
556
521
495
468
444
416
383
356
337
329
308
285
270
254
244
225
208
195
190
193
186
176
170
163
158
140
125
109
104
103
77
58
39
19
0
-27
-51
-74
-86
-94
-124
-139
-154
-165
-173
-192
-201
-207
-201
-198
-206
-206
-206
-204
-204
-213
-217
-220
-213
-216
-232
-241
-253
-264
-283
-307
-327
-342
-346
-365
-384
-397
-410
-418
-433
-449
-460
-463
-459
-466
-473
-475
-477
-473
-482
-485
-487
-477
-461
-468
-467
-467
-468
-469
-479
-487
-495
-494
-490
-511
-518
-526
-532
-536
-551
-560
-565
-559
-555
-562
-560
-557
-551
-547
-549
-544
-534
-512
-498
-494
-480
-467
-452
-443
-439
-432
-420
-398
-394
-393
-388
-386
-382
-386
-393
-396
-392
-381
-383
-383
-379
-375
-365
-369
-366
-363
-346
-325
-324
-317
-308
-299
-288
-287
-282
-277
-261
-244
-254
-250
-250
-250
-252
-264
-273
-280
-278
-282
-296
-303
-310
-313
-319
-331
-337
-337
-325
-322
-328
-325
-322
-315
-314
-315
-310
-297
-274
-268
-263
-254
-247
-240
-240
-244
-248
-247
-242
-253
-263
-273
-282
-288
-307
-320
-331
-329
-322
-331
-332
-330
-326
-319
-320
-313
-305
-281
-256
-255
-239
-224
-208
-194
-189
-181
-173
-157
-148
-154
-154
-159
-163
-171
-188
-200
-208
-205
-211
-225
-230
-235
-234
-240
-247
-249
-243
-226
-225
-225
-219
-214
-205
-203
-202
-198
-188
-170
-171
-169
-165
-162
-156
-165
-171
-176
-173
-167
-180
-187
-194
-200
-204
-220
-228
-235
-227
-218
-230
-229
-227
-224
-220
-221
-218
-211
-194
-181
-180
-170
-161
-151
-146
-149
-148
-144
-130
-130
-139
-141
-146
-150
-163
-177
-188
-190
-182
-190
-198
-200
-200
-197
-199
-202
-202
-194
-177
-179
-173
-165
-156
-144
-145
-141
-137
-124
-109
-112
-109
-109
-110
-109
-124
-132
-139
-134
-130
-146
-151
-157
-160
-164
-173
-177
-177
-167
-161
-168
-163
-160
-152
-149
-150
-145
-134
-113
-103
-100
-91
-84
-75
-76
-80
-82
-78
-68
-73
-83
-89
-97
-103
-115
-127
-136
-136
-127
-139
-142
-142
-141
-135
-139
-138
-133
-118
-99
-95
-84
-72
-59
-44
-44
-38
-32
-14
0
-5
-3
-4
-5
-10
-23
-33
-40
-36
-38
-52
-54
-57
-55
-56
-62
-63
-56
-38
-31
-30
-20
-11
2
6
9
16
30
52
58
60
66
69
73
68
61
53
53
59
40
32
26
20
18
7
0
-3
4
16
11
16
21
29
40
38
46
57
81
103
108
122
135
149
158
158
161
165
178
181
170
168
161
157
147
131
121
117
124
119
110
109
109
116
114
113
116
128
149
157
164
175
186
197
200
203
205
217
233
223
222
219
214
210
195
182
169
165
163
142
131
121
113
109
91
82
75
82
86
77
78
78
81
82
76
76
80
96
103
98
102
102
104
99
87
79
75
80
70
54
44
33
26
10
-6
-17
-21
-15
-19
-26
-27
-28
-24
-29
-30
-30
-17
4
1
9
17
26
37
37
39
41
51
63
53
53
49
46
44
27
17
9
11
9
-5
-10
-15
-16
-19
-28
-30
-28
-13
-4
-7
1
8
18
23
25
31
43
64
70
71
76
78
82
75
66
58
55
58
47
35
27
19
15
0
-10
-17
-10
3
-6
-5
-3
1
8
8
11
15
32
52
49
61
70
79
89
86
87
90
100
104
95
91
84
78
70
54
44
37
43
41
29
28
26
28
26
21
21
29
48
52
54
62
69
79
81
81
83
89
102
101
97
94
89
87
71
59
48
49
55
40
34
29
26
26
17
13
10
20
34
24
30
36
43
52
51
56
65
84
98
99
108
113
120
123
116
113
113
122
119
105
99
92
88
78
65
57
57
69
65
60
61
62
68
68
68
71
82
101
106
113
123
134
147
145
148
150
161
175
168
166
162
157
152
135
123
112
115
120
102
101
101
104
110
108
113
121
140
155
160
173
185
200
212
216
225
238
262
273
274
282
288
295
294
288
285
287
299
293
286
284
282
282
277
270
267
271
283
279
279
281
284
292
286
286
289
303
321
321
327
333
339
344
337
336
333
343
353
338
336
331
328
324
313
307
304
310
313
304
305
304
307
307
300
300
304
321
328
327
335
343
353
356
357
359
369
387
387
385
386
384
383
374
362
351
346
349
333
323
315
308
306
290
281
273
276
284
275
274
274
275
279
271
270
271
286
301
293
297
299
300
299
290
283
277
279
274
254
244
231
220
206
185
169
160
163
156
142
136
130
128
118
107
101
104
117
114
111
114
116
120
117
112
108
111
120
107
100
92
84
77
56
41
26
22
21
5
-4
-13
-19
-20
-35
-39
-41
-28
-15
-20
-12
-4
6
15
18
25
35
53
63
59
63
62
61
54
38
24
15
15
4
-13
-24
-36
-46
-64
-84
-102
-112
-114
-129
-146
-155
-162
-164
-169
-168
-159
-135
-94
-66
-21
33
93
162
223
292
367
455
550
632
729
833
949
1079
1206
1356
1521
1714
1918
2116
2333
2561
2802
3052
3306
3577
3862
4171
4488
4806
5148
5499
5862
6228
6594
6967
7347
7737
8116
8490
8871
9249
9627
9994
10357
10717
11078
11437
11773
12093
12399
12681
12934
13139
13296
13402
13463
13473
13401
13281
13108
12882
12611
12282
11913
11505
11074
10615
10110
9589
9046
8489
7926
7343
6769
6202
5658
5127
4599
4100
3620
3163
2720
2287
1875
1484
1121
769
422
104
-197
-475
-739
-989
-1218
-1426
-1609
-1792
-1967
-2124
-2270
-2402
-2534
-2659
-2773
-2872
-2955
-3044
-3129
-3203
-3272
-3331
-3393
-3447
-3492
-3521
-3537
-3570
-3589
-3601
-3608
-3608
-3615
-3613
-3607
-3589
-3566
-3561
-3543
-3525
-3505
-3482
-3474
-3458
-3441
-3414
-3390
-3381
-3365
-3353
-3340
-3331
-3332
-3329
-3326
-3312
-3307
-3314
-3312
-3311
-3306
-3305
-3308
-3305
-3295
-3274
-3265
-3259
-3245
-3230
-3211
-3200
-3188
-3172
-3148
-3115
-3094
-3076
-3054
-3033
-3009
-2997
-2981
-2965
-2938
-2906
-2899
-2884
-2868
-2853
-2836
-2828
-2816
-2803
-2779
-2751
-2744
-2724
-2703
-2681
-2655
-2642
-2620
-2594
-2557
-2522
-2500
-2470
-2441
-2409
-2381
-2360
-2337
-2311
-2275
-2250
-2237
-2217
-2201
-2184
-2173
-2169
-2162
-2148
-2124
-2115
-2108
-2094
-2081
-2064
-2054
-2045
-2031
-2010
-1981
-1963
-1945
-1924
-1902
-1875
-1860
-1839
-1818
-1784
-1746
-1731
-1709
-1687
-1666
-1646
-1636
-1624
-1613
-1592
-1570
-1572
-1560
-1550
-1539
-1527
-1526
-1517
-1505
-1483
-1465
-1458
-1442
-1426
-1407
-1390
-1380
-1363
-1342
-1309
-1284
-1269
-1245
-1224
-1201
-1185
-1176
-1163
-1146
-1120
-1112
-1110
-1103
-1099
-1092
-1093
-1095
-1095
-1087
-1072
-1069
-1065
-1056
-1046
-1030
-1027
-1018
-1007
-983
-952
-942
-924
-905
-885
-863
-851
-836
-821
-796
-770
-770
-757
-747
-738
-730
-733
-733
-731
-721
-714
-719
-716
-714
-709
-706
-709
-706
-697
-675
-662
-656
-642
-628
-610
-599
-591
-579
-559
-529
-517
-507
-492
-481
-469
-465
-465
-464
-459
-448
-454
-459
-462
-465
-463
-476
-481
-485
-476
-462
-466
-461
-455
-447
-436
-435
-427
-418
-396
-372
-372
-357
-343
-328
-314
-310
-303
-296
-281
-274
-280
-281
-285
-288
-297
-315
-328
-337
-335
-343
-359
-365
-371
-372
-380
-390
-395
-391
-377
-378
-381
-378
-376
-372
-374
-378
-381
-378
-368
-377
-383
-388
-395
-400
-421
-437
-453
-459
-463
-484
-499
-513
-524
-533
-552
-563
-572
-566
-558
-571
-568
-567
-562
-556
-557
-552
-544
-526
-513
-512
-503
-495
-487
-484
-490
-492
-491
-481
-485
-498
-504
-513
-519
-532
-547
-556
-556
-546
-552
-559
-559
-559
-557
-560
-562
-562
-554
-538
-542
-539
-534
-529
-519
-524
-524
-522
-512
-499
-503
-503
-504
-506
-506
-521
-530
-538
-533
-528
-544
-547
-551
-552
-553
-559
-560
-557
-543
-535
-538
-530
-524
-514
-507
-508
-503
-494
-473
-464
-463
-455
-451
-444
-447
-453
-457
-454
-444
-450
-459
-464
-469
-472
-480
-488
-494
-490
-476
-481
-477
-470
-461
-448
-444
-435
-421
-396
-367
-354
-333
-312
-289
-263
-252
-234
-216
-185
-156
-148
-130
-115
-99
-86
-81
-71
-59
-36
-19
-14
2
18
37
53
63
80
103
139
164
184
212
241
275
300
325
354
389
432
458
481
507
530
553
567
577
587
604
626
624
631
637
642
649
644
644
645
656
670
669
676
683
692
705
702
709
718
739
758
759
769
775
782
785
779
776
772
777
772
752
739
721
704
681
652
627
608
600
580
555
538
521
508
488
468
454
450
455
448
441
440
440
444
438
434
430
436
447
433
427
419
410
401
381
363
346
337
331
307
294
281
270
264
244
235
230
238
245
240
244
249
258
265
266
272
282
302
315
315
324
329
335
334
325
319
316
322
312
295
285
273
264
246
228
214
208
212
204
195
191
188
189
181
176
173
182
199
191
193
195
197
199
191
184
177
178
181
161
151
138
126
114
88
71
56
54
50
33
26
18
14
8
-4
-10
-11
-1
2
-6
-3
-2
3
1
-4
-6
-2
11
8
1
-1
-6
-9
-22
-38
-51
-58
-59
-72
-88
-99
-109
-116
-133
-144
-153
-149
-139
-151
-153
-153
-152
-148
-152
-153
-151
-138
-121
-127
-119
-113
-106
-98
-104
-104
-103
-94
-90
-99
-101
-107
-111
-119
-134
-143
-149
-144
-147
-160
-164
-168
-169
-174
-183
-186
-182
-166
-164
-164
-156
-150
-140
-138
-139
-137
-131
-118
-118
-122
-123
-126
-127
-143
-155
-168
-168
-163
-179
-188
-194
-200
-201
-210
-215
-217
-207
-194
-203
-196
-190
-181
-169
-168
-159
-148
-126
-108
-103
-91
-81
-69
-64
-67
-68
-66
-55
-56
-68
-72
-78
-81
-91
-104
-113
-113
-101
-105
-110
-107
-105
-98
-97
-96
-91
-78
-57
-48
-38
-24
-11
5
6
11
15
30
46
41
40
39
37
35
22
13
6
12
20
6
8
9
13
18
15
18
25
42
57
61
75
87
102
115
121
131
144
167
177
175
179
180
182
174
162
151
148
155
146
136
134
132
134
129
124
119
120
126
115
106
99
93
92
78
74
75
94
125
147
186
236
296
366
432
511
598
704
817
911
1024
1144
1274
1415
1560
1723
1900
2098
2304
2512
2743
2988
3253
3531
3819
4128
4461
4822
5189
5562
5957
6364
6784
7207
7636
8076
8530
8998
9452
9908
10369
10825
11279
11717
12141
12552
12950
13334
13676
13994
14277
14519
14718
14850
14930
14951
14921
14836
14676
14469
14213
13910
13562
13155
12712
12227
11714
11161
10551
9929
9287
8636
7980
7319
6669
6034
5426
4831
4246
3693
3161
2655
2167
1696
1252
838
460
97
-250
-563
-855
-1120
-1372
-1606
-1819
-2006
-2167
-2330
-2480
-2612
-2732
-2839
-2942
-3037
-3121
-3190
-3243
-3311
-3366
-3413
-3456
-3491
-3534
-3566
-3592
-3605
-3611
-3629
-3638
-3643
-3645
-3643
-3652
-3650
-3645
-3625
-3604
-3602
-3586
-3571
-3553
-3536
-3526
-3511
-3494
-3469
-3451
-3447
-3436
-3428
-3419
-3417
-3424
-3427
-3428
-3419
-3421
-3431
-3432
-3433
-3429
-3433
-3436
-3434
-3423
-3402
-3394
-3385
-3370
-3352
-3331
-3314
-3296
-3276
-3245
-3206
-3189
-3164
-3140
-3116
-3090
-3078
-3063
-3049
-3028
-3006
-3003
-2995
-2988
-2980
-2970
-2975
-2970
-2963
-2941
-2918
-2913
-2895
-2877
-2855
-2833
-2815
-2791
-2763
-2724
-2688
-2665
-2631
-2600
-2566
-2538
-2518
-2495
-2469
-2434
-2414
-2403
-2388
-2376
-2363
-2362
-2362
-2359
-2348
-2329
-2323
-2318
-2306
-2294
-2277
-2266
-2253
-2238
-2210
-2174
-2160
-2135
-2109
-2082
-2053
-2034
-2012
-1988
-1957
-1925
-1912
-1891
-1872
-1854
-1836
-1834
-1827
-1819
-1801
-1786
-1787
-1778
-1770
-1759
-1749
-1744
-1733
-1718
-1691
-1669
-1659
-1637
-1617
-1593
-1574
-1560
-1540
-1514
-1478
-1454
-1436
-1412
-1389
-1365
-1351
-1339
-1325
-1304
-1278
-1266
-1258
-1247
-1239
-1228
-1225
-1221
-1215
-1197
-1172
-1171
-1158
-1144
-1129
-1112
-1104
-1093
-1078
-1054
-1027
-1019
-999
-979
-958
-933
-924
-907
-888
-859
-833
-824
-809
-797
-785
-778
-779
-777
-773
-758
-752
-757
-752
-748
-740
-737
-737
-731
-719
-696
-686
-679
-663
-648
-629
-619
-608
-594
-573
-544
-529
-518
-504
-492
-480
-480
-479
-479
-468
-454
-464
-466
-467
-468
-468
-475
-479
-480
-470
-456
-463
-455
-448
-438
-425
-425
-416
-404
-382
-361
-354
-338
-323
-307
-295
-292
-286
-278
-261
-253
-259
-257
-258
-258
-266
-279
-289
-292
-284
-290
-298
-297
-297
-293
-295
-297
-293
-282
-262
-252
-243
-228
-213
-193
-186
-173
-160
-135
-107
-104
-93
-83
-75
-67
-70
-71
-73
-65
-55
-68
-67
-66
-64
-59
-65
-63
-58
-42
-29
-28
-19
-9
3
13
16
25
38
62
77
81
94
105
118
125
125
128
136
152
150
144
143
140
140
133
125
120
122
133
132
132
136
141
151
149
152
157
175
198
200
212
224
237
251
256
264
270
287
305
297
301
302
302
302
289
281
275
278
277
264
259
254
253
251
242
239
242
256
261
258
265
270
278
280
280
284
295
316
321
322
328
332
337
334
326
320
317
320
307
295
285
275
271
253
242
233
238
247
240
241
245
252
262
264
272
282
307
335
340
360
378
397
414
422
432
443
461
473
471
476
476
477
473
462
456
455
465
465
456
456
455
459
457
453
453
462
480
482
484
491
497
506
508
507
507
510
519
509
500
492
481
472
445
421
397
380
366
333
306
279
253
230
196
169
144
134
125
93
77
59
43
27
5
-14
-28
-34
-44
-68
-84
-103
-121
-143
-173
-200
-223
-237
-261
-295
-322
-350
-374
-405
-437
-465
-483
-490
-512
-534
-549
-564
-575
-592
-608
-622
-627
-624
-640
-649
-656
-661
-663
-679
-690
-700
-701
-699
-715
-725
-737
-748
-760
-785
-804
-822
-825
-827
-850
-859
-868
-876
-883
-896
-904
-908
-901
-898
-907
-905
-903
-899
-898
-902
-900
-892
-874
-867
-870
-865
-863
-859
-864
-872
-878
-878
-871
-881
-892
-898
-905
-910
-920
-931
-939
-938
-929
-939
-942
-941
-940
-933
-939
-938
-934
-919
-900
-897
-887
-877
-867
-855
-859
-857
-854
-839
-827
-837
-837
-840
-842
-848
-859
-866
-870
-864
-863
-875
-874
-874
-869
-866
-868
-864
-852
-827
-813
-804
-786
-768
-745
-730
-716
-700
-677
-647
-633
-624
-611
-601
-591
-589
-590
-590
-582
-567
-575
-573
-570
-565
-556
-558
-553
-546
-529
-507
-501
-486
-470
-451
-429
-420
-402
-381
-347
-314
-300
-276
-256
-236
-219
-211
-203
-194
-178
-171
-180
-181
-186
-189
-197
-212
-221
-225
-217
-221
-230
-231
-232
-228
-232
-235
-233
-222
-201
-193
-187
-175
-163
-149
-142
-136
-129
-112
-90
-94
-91
-88
-87
-86
-97
-107
-116
-117
-115
-131
-138
-144
-148
-147
-161
-165
-165
-152
-140
-143
-135
-128
-118
-109
-106
-99
-90
-70
-59
-61
-54
-51
-47
-51
-62
-69
-73
-67
-76
-91
-99
-109
-114
-129
-142
-151
-150
-141
-143
-146
-143
-139
-131
-132
-129
-126
-110
-87
-89
-81
-72
-64
-55
-58
-59
-60
-55
-49
-64
-71
-80
-89
-97
-118
-130
-139
-136
-135
-146
-147
-147
-144
-141
-144
-141
-133
-114
-101
-101
-90
-81
-69
-63
-64
-62
-57
-43
-44
-51
-53
-57
-59
-71
-86
-98
-103
-100
-108
-118
-124
-129
-129
-141
-147
-152
-144
-130
-140
-140
-139
-137
-134
-138
-138
-136
-124
-109
-117
-112
-109
-104
-99
-108
-110
-110
-101
-96
-104
-106
-109
-110
-114
-126
-132
-134
-124
-123
-132
-131
-132
-129
-132
-138
-139
-133
-116
-113
-113
-105
-100
-91
-91
-92
-92
-86
-74
-75
-79
-81
-83
-84
-98
-109
-119
-118
-111
-126
-132
-137
-141
-143
-154
-161
-166
-160
-151
-164
-161
-160
-155
-148
-150
-145
-137
-119
-104
-103
-95
-89
-82
-79
-85
-88
-88
-79
-80
-93
-98
-105
-110
-121
-135
-146
-149
-141
-148
-157
-158
-161
-159
-163
-168
-169
-163
-148
-146
-143
-137
-132
-124
-131
-133
-135
-126
-115
-125
-130
-135
-140
-144
-158
-167
-174
-169
-161
-176
-174
-173
-168
-161
-162
-156
-146
-126
-110
-103
-87
-72
-55
-39
-31
-18
-1
25
41
44
54
60
67
65
57
52
54
65
60
54
53
52
54
51
47
47
54
69
70
75
84
94
109
111
121
133
156
183
190
203
216
228
239
238
239
238
249
260
245
243
238
234
230
218
210
206
212
214
204
204
203
205
206
200
201
207
226
234
235
244
252
264
267
266
268
275
290
286
279
275
269
263
249
233
219
211
211
195
184
176
169
168
153
146
142
150
164
162
167
173
181
191
189
193
198
214
230
222
225
226
225
222
209
199
189
187
178
157
145
130
119
105
85
73
69
79
79
73
77
80
87
87
84
85
94
112
114
114
118
119
120
115
106
97
94
97
79
66
52
38
28
5
-13
-28
-31
-30
-44
-50
-55
-57
-56
-68
-71
-72
-58
-44
-51
-45
-40
-34
-30
-33
-33
-32
-23
-20
-33
-37
-45
-52
-65
-87
-106
-120
-123
-137
-157
-167
-176
-181
-192
-203
-210
-207
-194
-196
-199
-197
-195
-191
-192
-194
-194
-186
-171
-178
-178
-178
-180
-180
-193
-203
-212
-214
-213
-230
-241
-251
-260
-265
-284
-292
-299
-290
-282
-291
-290
-289
-285
-282
-285
-283
-277
-261
-250
-252
-243
-237
-229
-227
-233
-234
-231
-218
-219
-228
-231
-237
-240
-253
-268
-279
-282
-277
-285
-295
-299
-302
-301
-306
-311
-314
-306
-289
-295
-290
-282
-273
-261
-261
-256
-250
-234
-216
-217
-211
-208
-205
-202
-216
-223
-229
-224
-221
-234
-238
-244
-246
-251
-260
-263
-263
-250
-243
-247
-241
-236
-226
-221
-221
-215
-202
-179
-169
-165
-154
-146
-135
-135
-137
-138
-132
-120
-123
-131
-136
-142
-146
-159
-171
-182
-181
-174
-188
-192
-194
-195
-193
-200
-203
-204
-195
-182
-187
-181
-174
-165
-154
-158
-154
-149
-134
-121
-124
-121
-120
-120
-123
-134
-143
-148
-143
-144
-157
-159
-163
-161
-164
-169
-168
-159
-137
-126
-119
-101
-84
-62
-48
-34
-17
7
38
55
68
84
98
114
119
124
129
145
165
160
164
167
171
177
174
174
177
191
208
206
217
227
241
257
259
270
283
307
328
336
352
365
380
390
390
394
398
412
415
405
403
397
392
381
365
354
350
356
349
339
337
335
338
333
328
327
333
348
351
352
359
365
375
372
374
377
389
406
399
400
398
396
393
380
368
356
354
354
331
323
314
307
303
288
280
275
280
281
272
271
268
268
264
254
249
247
257
257
246
243
237
232
221
203
189
179
179
161
140
124
106
90
66
39
15
-4
-17
-43
-70
-93
-115
-130
-155
-170
-179
-168
-145
-133
-102
-60
-9
51
107
173
244
332
428
504
599
698
805
923
1038
1171
1319
1488
1666
1842
2036
2238
2453
2675
2902
3144
3401
3681
3966
4254
4567
4890
5228
5568
5913
6267
6631
7006
7366
7725
8089
8452
8817
9171
9520
9868
10213
10555
10874
11181
11477
11754
12010
12220
12396
12527
12619
12661
12627
12544
12406
12217
11983
11694
11366
10998
10608
10190
9721
9241
8739
8221
7691
7146
6603
6066
5544
5029
4519
4033
3563
3114
2678
2251
1844
1456
1095
740
393
71
-233
-514
-782
-1034
-1264
-1470
-1650
-1833
-2004
-2158
-2301
-2430
-2555
-2673
-2781
-2875
-2954
-3043
-3123
-3193
-3259
-3315
-3381
-3435
-3483
-3515
-3538
-3575
-3599
-3618
-3631
-3638
-3652
-3655
-3654
-3635
-3612
-3610
-3591
-3572
-3548
-3524
-3506
-3483
-3456
-3421
-3392
-3377
-3355
-3337
-3319
-3307
-3305
-3300
-3294
-3279
-3277
-3285
-3286
-3289
-3288
-3294
-3302
-3304
-3298
-3279
-3274
-3270
-3258
-3246
-3230
-3217
-3206
-3191
-3169
-3137
-3123
-3103
-3081
-3059
-3033
-3024
-3009
-2994
-2970
-2944
-2935
-2921
-2908
-2895
-2881
-2879
-2870
-2860
-2833
-2805
-2798
-2777
-2756
-2734
-2711
-2694
-2673
-2647
-2612
-2581
-2561
-2532
-2504
-2472
-2443
-2419
-2390
-2354
-2308
-2274
-2249
-2216
-2185
-2151
-2126
-2103
-2078
-2045
-2003
-1979
-1957
-1930
-1905
-1877
-1855
-1836
-1814
-1784
-1746
-1728
-1703
-1676
-1648
-1617
-1599
-1575
-1549
-1513
-1473
-1449
-1419
-1390
-1360
-1330
-1314
-1293
-1271
-1237
-1206
-1197
-1177
-1161
-1144
-1130
-1121
-1110
-1097
-1074
-1057
-1052
-1036
-1022
-1005
-992
-986
-974
-957
-928
-910
-898
-877
-857
-832
-816
-801
-783
-758
-725
-707
-693
-676
-661
-647
-641
-637
-635
-624
-607
-613
-611
-608
-604
-596
-600
-599
-597
-586
-571
-573
-567
-561
-552
-540
-541
-532
-521
-497
-474
-469
-454
-441
-428
-417
-413
-406
-397
-380
-371
-377
-373
-373
-372
-375
-385
-391
-390
-379
-379
-385
-383
-381
-376
-378
-380
-379
-369
-350
-344
-340
-330
-320
-307
-303
-300
-295
-282
-264
-271
-270
-270
-273
-275
-290
-302
-313
-316
-317
-336
-346
-356
-364
-369
-389
-399
-406
-398
-392
-400
-399
-398
-394
-390
-393
-391
-385
-369
-360
-365
-360
-359
-355
-360
-372
-381
-386
-383
-394
-410
-419
-430
-437
-454
-470
-484
-489
-485
-493
-502
-504
-505
-502
-506
-507
-505
-491
-470
-472
-465
-458
-451
-443
-446
-448
-450
-445
-439
-455
-462
-473
-485
-496
-522
-539
-555
-558
-564
-582
-590
-598
-603
-609
-621
-625
-624
-610
-601
-603
-593
-584
-572
-565
-564
-560
-551
-533
-531
-535
-534
-537
-537
-549
-563
-575
-581
-579
-589
-601
-608
-614
-617
-629
-638
-644
-638
-624
-632
-630
-625
-619
-609
-608
-602
-595
-577
-556
-558
-549
-543
-538
-532
-541
-545
-549
-544
-544
-558
-566
-574
-580
-587
-602
-610
-613
-605
-603
-612
-610
-607
-601
-598
-600
-596
-587
-567
-561
-558
-549
-542
-533
-534
-536
-536
-530
-517
-517
-521
-522
-525
-526
-540
-550
-558
-553
-542
-553
-552
-549
-544
-536
-534
-528
-518
-496
-470
-465
-446
-427
-405
-381
-369
-350
-327
-295
-267
-251
-228
-208
-186
-169
-160
-147
-132
-106
-89
-81
-64
-48
-27
-12
-1
16
39
74
95
113
140
166
197
222
246
274
308
350
379
407
436
463
493
508
525
541
566
594
598
607
615
621
627
624
624
625
637
653
645
654
663
673
686
689
699
712
735
753
761
776
788
801
810
809
811
815
827
828
816
811
802
794
777
754
735
722
719
700
680
668
655
646
631
615
603
598
600
589
580
574
568
567
552
542
534
536
541
527
518
510
502
494
475
461
446
443
441
415
404
392
382
372
354
342
333
335
333
319
314
308
305
300
287
279
277
286
285
275
274
271
271
262
250
241
238
243
231
216
206
194
183
165
144
125
112
107
86
69
55
43
35
14
-1
-14
-15
-10
-23
-27
-30
-31
-28
-37
-38
-39
-27
-14
-26
-24
-25
-26
-29
-41
-51
-60
-61
-69
-89
-101
-114
-125
-140
-161
-177
-188
-187
-196
-213
-221
-229
-232
-242
-253
-259
-256
-242
-244
-246
-244
-243
-241
-246
-254
-261
-262
-257
-272
-283
-292
-301
-306
-325
-338
-348
-347
-341
-351
-353
-354
-353
-348
-355
-353
-350
-330
-310
-309
-294
-280
-264
-250
-243
-233
-222
-203
-191
-193
-188
-187
-185
-190
-204
-214
-221
-217
-224
-239
-245
-252
-253
-262
-272
-277
-272
-257
-256
-254
-247
-238
-227
-221
-216
-209
-194
-172
-173
-168
-163
-159
-155
-166
-174
-183
-184
-184
-202
-214
-227
-237
-246
-268
-281
-291
-286
-281
-296
-297
-299
-297
-295
-299
-297
-291
-275
-263
-264
-254
-246
-237
-234
-239
-240
-238
-227
-230
-242
-248
-257
-264
-280
-298
-311
-316
-312
-321
-330
-332
-332
-329
-331
-331
-328
-314
-292
-292
-284
-274
-264
-249
-246
-239
-231
-215
-197
-196
-188
-181
-173
-163
-169
-167
-165
-151
-139
-146
-143
-142
-139
-138
-143
-143
-139
-124
-113
-113
-100
-87
-70
-55
-46
-32
-14
15
30
39
56
71
92
104
117
138
172
221
264
314
376
446
527
608
697
795
912
1043
1158
1291
1437
1593
1764
1936
2124
2323
2541
2775
3004
3256
3521
3802
4099
4396
4717
5053
5413
5782
6145
6526
6913
7309
7708
8106
8512
8924
9351
9773
10183
10602
11015
11425
11820
12197
12563
12915
13254
13552
13811
14035
14209
14334
14393
14392
14337
14232
14079
13861
13592
13280
12920
12515
12057
11558
11021
10460
9878
9252
8623
7990
7358
6736
6115
5513
4931
4380
3855
3335
2850
2388
1950
1537
1131
754
403
86
-212
-500
-760
-1003
-1225
-1433
-1633
-1814
-1980
-2122
-2262
-2403
-2525
-2639
-2743
-2843
-2940
-3023
-3091
-3140
-3196
-3248
-3287
-3320
-3344
-3372
-3395
-3410
-3414
-3408
-3410
-3412
-3407
-3401
-3390
-3390
-3387
-3384
-3370
-3352
-3358
-3357
-3358
-3360
-3362
-3374
-3385
-3396
-3397
-3396
-3416
-3423
-3430
-3434
-3434
-3445
-3447
-3445
-3430
-3417
-3415
-3403
-3392
-3376
-3361
-3352
-3337
-3318
-3287
-3264
-3253
-3233
-3215
-3194
-3180
-3173
-3161
-3145
-3119
-3110
-3104
-3094
-3085
-3073
-3068
-3064
-3056
-3039
-3014
-2999
-2985
-2965
-2944
-2917
-2903
-2881
-2858
-2821
-2777
-2754
-2721
-2686
-2651
-2615
-2589
-2562
-2535
-2498
-2460
-2447
-2422
-2401
-2381
-2362
-2356
-2344
-2330
-2305
-2285
-2276
-2259
-2242
-2222
-2204
-2192
-2173
-2150
-2115
-2087
-2069
-2041
-2013
-1981
-1955
-1933
-1906
-1873
-1831
-1806
-1786
-1761
-1739
-1717
-1705
-1697
-1688
-1675
-1656
-1651
-1646
-1637
-1628
-1616
-1617
-1611
-1604
-1584
-1560
-1554
-1540
-1523
-1506
-1486
-1475
-1458
-1439
-1408
-1374
-1363
-1337
-1314
-1292
-1270
-1259
-1245
-1230
-1209
-1194
-1192
-1185
-1182
-1177
-1176
-1184
-1186
-1184
-1171
-1165
-1168
-1159
-1151
-1139
-1132
-1127
-1117
-1098
-1069
-1054
-1041
-1020
-1001
-978
-962
-948
-933
-913
-887
-878
-869
-859
-850
-840
-845
-846
-846
-835
-820
-824
-821
-816
-810
-800
-801
-795
-787
-765
-741
-740
-724
-709
-692
-675
-665
-651
-633
-607
-586
-579
-564
-553
-541
-534
-536
-535
-531
-518
-516
-524
-523
-524
-521
-525
-530
-529
-520
-498
-492
-485
-471
-457
-440
-427
-416
-402
-381
-352
-340
-323
-305
-288
-268
-264
-254
-246
-228
-209
-210
-207
-205
-205
-204
-216
-220
-223
-213
-201
-211
-207
-203
-196
-189
-188
-182
-173
-153
-138
-135
-123
-112
-97
-87
-83
-75
-62
-39
-28
-26
-17
-11
-4
-6
-12
-16
-14
-4
-11
-19
-22
-26
-27
-34
-41
-44
-40
-28
-34
-34
-32
-28
-20
-25
-23
-19
-5
14
17
28
37
48
59
56
59
62
78
92
85
88
89
91
91
84
81
81
90
95
87
89
88
90
89
81
78
80
93
96
91
94
96
100
96
90
86
89
100
95
87
83
76
69
55
38
22
14
15
-6
-18
-28
-38
-43
-59
-69
-76
-72
-64
-70
-68
-64
-58
-47
-48
-40
-30
-6
16
19
31
41
52
59
58
59
60
71
74
62
60
56
54
46
33
24
22
32
31
24
27
29
36
36
37
43
58
84
96
107
123
139
157
168
178
189
207
231
230
238
244
249
255
249
246
245
251
261
255
258
262
268
277
272
278
287
309
331
335
350
363
378
392
398
408
420
440
452
448
451
450
450
442
426
411
399
396
379
355
338
319
304
280
255
234
220
213
195
174
158
142
128
107
88
71
65
66
42
26
10
-7
-23
-52
-79
-106
-125
-144
-183
-212
-244
-274
-302
-344
-376
-406
-423
-440
-470
-490
-509
-525
-540
-560
-574
-583
-581
-585
-601
-606
-613
-617
-625
-640
-652
-657
-654
-665
-681
-692
-706
-716
-736
-757
-774
-784
-785
-798
-812
-820
-827
-829
-840
-848
-855
-850
-838
-849
-850
-850
-850
-847
-852
-854
-854
-844
-831
-840
-838
-838
-837
-835
-848
-855
-859
-853
-851
-862
-865
-869
-871
-874
-883
-886
-885
-870
-863
-867
-860
-853
-842
-835
-832
-823
-808
-781
-769
-759
-742
-726
-708
-699
-691
-680
-664
-641
-632
-625
-616
-608
-598
-599
-597
-594
-579
-558
-558
-549
-537
-524
-509
-502
-490
-476
-451
-422
-416
-396
-376
-355
-331
-320
-302
-282
-251
-224
-210
-189
-172
-154
-141
-138
-132
-124
-107
-99
-103
-98
-94
-87
-85
-87
-85
-75
-55
-50
-47
-38
-30
-19
-15
-12
-4
9
30
38
46
56
64
76
73
73
72
81
95
85
81
77
71
67
53
43
34
38
45
29
28
26
26
29
21
21
26
40
51
52
61
68
77
83
79
79
81
93
93
81
76
69
63
49
30
15
7
9
-4
-19
-26
-33
-36
-45
-55
-61
-61
-51
-55
-58
-58
-57
-51
-58
-59
-60
-48
-33
-39
-40
-41
-42
-44
-58
-68
-78
-78
-77
-101
-110
-120
-130
-138
-154
-165
-171
-167
-165
-174
-174
-175
-173
-173
-180
-180
-175
-159
-152
-155
-150
-147
-143
-148
-157
-163
-165
-158
-170
-184
-194
-207
-217
-233
-249
-262
-268
-266
-277
-284
-287
-289
-285
-296
-300
-301
-290
-275
-277
-272
-267
-262
-255
-260
-260
-261
-249
-238
-251
-253
-257
-262
-268
-283
-296
-306
-308
-314
-332
-341
-351
-357
-367
-382
-391
-394
-385
-386
-395
-395
-396
-393
-397
-403
-406
-401
-386
-388
-392
-391
-393
-393
-401
-411
-421
-426
-424
-442
-457
-470
-483
-491
-513
-528
-541
-542
-538
-550
-555
-558
-558
-555
-564
-563
-561
-544
-526
-528
-517
-506
-495
-485
-482
-476
-468
-452
-442
-446
-442
-442
-440
-443
-454
-460
-460
-449
-448
-454
-450
-445
-436
-433
-431
-425
-409
-384
-373
-363
-348
-332
-314
-302
-293
-284
-268
-247
-249
-246
-244
-244
-241
-254
-263
-272
-273
-271
-285
-291
-296
-299
-299
-310
-311
-310
-294
-278
-280
-270
-260
-247
-235
-227
-215
-200
-175
-154
-145
-127
-112
-96
-84
-81
-73
-62
-41
-33
-34
-29
-26
-21
-25
-30
-32
-25
-8
-5
-3
5
13
23
27
31
37
52
76
78
88
100
112
127
130
137
145
160
177
177
183
187
190
194
183
177
172
180
185
173
172
170
172
172
167
167
170
185
194
191
200
207
217
223
224
230
241
262
271
272
279
284
291
287
281
276
277
284
275
262
253
244
237
222
208
196
196
203
188
183
181
179
181
173
170
169
179
193
189
196
202
209
217
209
208
207
217
224
213
209
202
196
185
167
153
142
142
136
118
112
104
100
94
82
78
80
95
97
96
103
110
122
124
125
129
139
155
158
156
157
156
156
145
134
123
122
126
106
97
88
80
74
62
54
49
54
63
53
55
57
61
68
60
62
67
84
98
97
103
107
110
109
100
94
89
93
88
69
58
44
32
15
-7
-24
-34
-32
-42
-55
-61
-67
-67
-76
-84
-88
-84
-71
-69
-69
-64
-58
-49
-50
-50
-51
-41
-27
-38
-41
-46
-52
-59
-76
-91
-105
-109
-109
-130
-139
-147
-154
-157
-172
-179
-182
-173
-167
-173
-170
-167
-162
-158
-161
-158
-152
-135
-128
-133
-131
-132
-132
-140
-155
-167
-174
-173
-188
-207
-221
-235
-245
-263
-280
-292
-295
-288
-292
-297
-296
-295
-287
-291
-289
-285
-269
-247
-247
-238
-228
-218
-208
-207
-205
-203
-193
-181
-194
-195
-198
-201
-203
-217
-224
-227
-220
-216
-223
-221
-220
-215
-212
-215
-213
-205
-184
-172
-169
-157
-146
-132
-123
-119
-111
-97
-75
-70
-70
-65
-63
-60
-66
-76
-83
-86
-82
-91
-100
-105
-110
-109
-122
-128
-132
-123
-107
-110
-105
-98
-89
-78
-75
-66
-57
-35
-10
-9
6
19
32
45
45
49
55
67
75
68
68
66
65
60
48
42
40
51
54
48
53
58
66
69
71
77
92
117
128
138
154
168
186
196
202
210
222
240
242
243
246
246
248
235
226
217
219
225
213
209
206
206
208
201
199
198
211
227
220
229
237
247
259
261
269
278
295
306
303
306
305
304
298
283
272
265
267
258
238
226
212
200
180
157
137
126
126
112
99
96
96
104
112
125
150
190
246
295
355
422
494
575
645
727
814
916
1029
1131
1248
1375
1514
1668
1823
1997
2182
2390
2607
2811
3040
3278
3527
3784
4045
4320
4610
4922
5240
5554
5885
6221
6564
6906
7241
7580
7923
8276
8617
8947
9279
9605
9928
10235
10528
10813
11095
11371
11612
11828
12017
12166
12272
12323
12322
12270
12172
12030
11823
11577
11292
10969
10613
10211
9787
9341
8884
8411
7905
7395
6879
6360
5846
5324
4819
4330
3870
3427
2980
2561
2157
1770
1395
1028
680
349
44
-249
-536
-795
-1037
-1258
-1465
-1664
-1843
-2005
-2144
-2282
-2416
-2533
-2642
-2739
-2836
-2929
-3012
-3081
-3136
-3202
-3264
-3317
-3367
-3409
-3453
-3493
-3524
-3543
-3548
-3569
-3577
-3577
-3573
-3561
-3557
-3545
-3527
-3498
-3462
-3440
-3411
-3380
-3348
-3314
-3295
-3269
-3243
-3207
-3175
-3165
-3148
-3135
-3123
-3115
-3116
-3116
-3114
-3103
-3099
-3107
-3105
-3103
-3097
-3093
-3093
-3086
-3071
-3043
-3024
-3011
-2988
-2965
-2939
-2921
-2903
-2881
-2851
-2813
-2790
-2769
-2743
-2719
-2695
-2678
-2662
-2647
-2624
-2595
-2590
-2576
-2562
-2549
-2532
-2526
-2515
-2501
-2477
-2449
-2436
-2413
-2390
-2365
-2337
-2324
-2301
-2276
-2238
-2202
-2184
-2155
-2128
-2100
-2074
-2056
-2034
-2009
-1976
-1949
-1937
-1916
-1898
-1878
-1865
-1858
-1847
-1831
-1804
-1790
-1782
-1767
-1752
-1733
-1723
-1713
-1700
-1679
-1650
-1634
-1620
-1600
-1581
-1559
-1546
-1530
-1513
-1485
-1450
-1438
-1416
-1395
-1375
-1352
-1341
-1327
-1313
-1292
-1269
-1265
-1253
-1243
-1231
-1218
-1219
-1211
-1202
-1180
-1160
-1155
-1142
-1130
-1115
-1103
-1096
-1084
-1069
-1041
-1019
-1008
-987
-968
-945
-928
-917
-902
-883
-854
-839
-830
-816
-805
-792
-789
-788
-783
-772
-753
-747
-743
-735
-726
-714
-712
-707
-702
-685
-661
-660
-649
-636
-623
-606
-598
-587
-574
-551
-527
-524
-509
-497
-484
-470
-471
-467
-461
-445
-433
-436
-432
-429
-424
-421
-424
-421
-415
-398
-389
-393
-386
-382
-374
-371
-372
-368
-357
-336
-329
-326
-316
-309
-298
-298
-300
-300
-295
-284
-287
-294
-300
-307
-311
-327
-340
-352
-352
-346
-363
-369
-375
-380
-383
-394
-401
-406
-400
-389
-399
-394
-390
-384
-375
-379
-375
-370
-356
-345
-349
-347
-348
-348
-354
-369
-381
-390
-390
-399
-419
-430
-443
-452
-467
-486
-499
-505
-499
-507
-517
-519
-522
-519
-522
-525
-523
-515
-500
-497
-496
-493
-492
-488
-499
-508
-517
-516
-512
-532
-544
-558
-572
-585
-608
-626
-642
-645
-644
-664
-669
-672
-672
-670
-676
-675
-671
-655
-642
-639
-629
-621
-609
-601
-602
-598
-592
-577
-572
-581
-581
-585
-587
-597
-612
-621
-624
-616
-624
-632
-634
-635
-633
-636
-639
-639
-632
-617
-612
-607
-597
-586
-570
-567
-558
-548
-527
-501
-497
-486
-476
-467
-457
-459
-458
-458
-446
-434
-446
-445
-445
-443
-442
-448
-449
-447
-434
-425
-427
-420
-414
-405
-399
-399
-393
-381
-358
-344
-342
-331
-323
-313
-312
-316
-318
-314
-302
-308
-317
-321
-326
-327
-334
-340
-343
-338
-323
-322
-317
-308
-297
-281
-277
-265
-251
-225
-193
-179
-158
-136
-113
-89
-75
-57
-40
-10
20
25
44
60
76
91
97
106
117
138
155
160
176
190
208
224
234
251
273
307
332
348
374
398
426
446
464
485
514
552
572
588
608
624
642
651
656
660
669
683
678
674
672
669
671
658
652
648
655
666
660
660
661
663
669
663
665
668
685
702
698
707
714
722
728
726
725
724
730
729
713
704
690
677
659
633
611
594
588
572
549
535
521
511
494
476
464
460
468
461
453
451
448
449
444
437
431
431
439
425
416
407
395
385
359
337
315
302
291
264
244
225
207
194
168
152
139
142
147
132
132
131
134
135
132
134
139
154
163
160
164
164
165
161
148
138
131
133
121
101
88
72
61
41
20
4
-4
-1
-11
-22
-27
-31
-32
-38
-44
-47
-41
-27
-35
-34
-31
-28
-23
-30
-35
-40
-38
-33
-47
-55
-65
-76
-85
-109
-125
-141
-142
-144
-164
-172
-181
-186
-193
-204
-210
-213
-204
-201
-209
-206
-206
-201
-201
-206
-207
-202
-188
-187
-194
-194
-197
-198
-208
-221
-231
-234
-229
-239
-252
-259
-266
-270
-281
-292
-300
-298
-288
-302
-305
-307
-308
-306
-315
-318
-319
-309
-296
-300
-293
-288
-281
-272
-279
-278
-276
-261
-250
-257
-255
-256
-257
-261
-271
-276
-278
-269
-267
-276
-275
-274
-271
-272
-277
-277
-271
-254
-247
-245
-235
-225
-211
-205
-200
-192
-177
-155
-148
-145
-140
-137
-133
-139
-145
-152
-150
-141
-157
-164
-170
-175
-177
-187
-193
-197
-190
-179
-185
-180
-173
-165
-153
-155
-147
-136
-113
-92
-86
-73
-63
-51
-43
-44
-42
-39
-27
-24
-35
-38
-45
-49
-58
-72
-81
-84
-75
-78
-85
-84
-84
-78
-80
-81
-78
-68
-48
-38
-31
-18
-6
9
14
20
25
42
63
58
61
64
65
67
57
50
43
46
51
37
34
31
31
34
25
24
26
40
53
53
63
71
83
93
96
105
117
139
153
154
162
167
173
171
162
157
155
162
152
138
131
123
120
107
95
86
85
93
90
86
86
88
93
88
88
90
105
126
123
129
135
140
145
139
136
132
136
141
121
113
103
92
83
61
47
36
36
34
22
19
15
16
15
7
5
8
24
32
29
37
45
55
59
59
60
67
83
82
76
74
69
66
54
40
29
23
25
15
5
-1
-5
-4
-14
-18
-20
-8
10
7
13
21
30
41
44
50
58
77
98
94
103
108
114
119
112
109
107
113
112
98
90
79
69
56
35
21
11
12
6
-10
-17
-24
-28
-38
-50
-57
-57
-44
-47
-51
-48
-46
-41
-43
-48
-50
-48
-39
-45
-51
-56
-62
-65
-84
-97
-110
-112
-109
-126
-134
-141
-146
-149
-161
-167
-172
-163
-150
-160
-152
-145
-135
-124
-122
-115
-105
-87
-73
-73
-67
-64
-61
-64
-77
-86
-93
-90
-98
-116
-126
-136
-143
-156
-171
-181
-182
-172
-178
-183
-181
-179
-172
-170
-169
-163
-149
-127
-121
-111
-100
-90
-77
-81
-81
-82
-74
-65
-76
-83
-91
-100
-106
-124
-136
-147
-143
-137
-153
-152
-152
-148
-143
-144
-140
-131
-113
-98
-95
-83
-72
-59
-50
-49
-45
-38
-22
-18
-25
-26
-31
-34
-46
-62
-75
-80
-75
-85
-96
-100
-104
-103
-107
-111
-112
-105
-91
-93
-89
-83
-77
-65
-68
-64
-58
-43
-26
-25
-20
-15
-11
-5
-14
-17
-20
-11
-4
-19
-22
-26
-28
-31
-41
-46
-48
-38
-34
-41
-37
-35
-29
-27
-30
-28
-20
0
9
10
20
28
40
43
44
47
58
76
77
74
76
75
74
67
58
50
50
58
45
40
37
34
36
25
20
16
23
33
27
29
31
35
43
37
40
45
63
79
74
80
84
88
90
83
79
77
83
83
69
65
59
56
49
36
28
26
34
31
22
20
18
20
14
8
6
14
32
34
35
41
46
52
50
48
45
51
63
51
45
39
31
26
9
-5
-18
-22
-22
-37
-45
-52
-58
-60
-75
-81
-84
-73
-61
-66
-59
-51
-42
-34
-32
-28
-22
-7
0
-8
-7
-11
-13
-22
-39
-52
-61
-59
-70
-86
-94
-103
-107
-119
-132
-141
-141
-131
-134
-138
-135
-132
-125
-123
-121
-116
-102
-80
-82
-75
-68
-62
-55
-61
-64
-68
-66
-63
-80
-89
-100
-110
-118
-140
-153
-164
-161
-158
-171
-173
-175
-175
-175
-181
-182
-178
-163
-153
-155
-147
-141
-132
-130
-136
-140
-140
-132
-140
-155
-166
-180
-193
-215
-238
-258
-271
-274
-289
-305
-314
-322
-326
-338
-346
-351
-343
-327
-334
-329
-323
-316
-305
-303
-297
-290
-274
-257
-259
-251
-246
-241
-236
-247
-251
-255
-249
-246
-257
-261
-265
-266
-269
-277
-279
-276
-260
-249
-249
-237
-225
-207
-194
-185
-172
-151
-121
-104
-94
-77
-64
-49
-45
-43
-40
-33
-20
-20
-25
-27
-30
-30
-40
-48
-55
-48
-35
-44
-42
-37
-31
-23
-21
-15
-6
13
37
41
58
73
90
109
115
126
138
160
176
177
184
187
190
189
178
171
168
175
173
161
159
155
156
152
144
141
146
161
161
159
164
167
174
173
172
174
183
198
200
199
201
202
205
193
184
175
177
183
166
158
151
144
139
126
118
112
118
128
116
119
122
127
134
130
134
141
159
175
179
190
199
210
216
213
214
217
229
229
217
212
204
197
183
165
152
146
151
142
133
131
128
130
125
122
122
131
147
152
157
166
175
189
190
195
200
217
236
233
236
237
238
237
225
216
206
207
211
193
189
185
183
183
175
173
174
186
195
192
198
202
210
216
214
217
225
243
251
248
253
255
259
255
245
239
237
244
233
218
207
195
186
171
154
141
135
137
127
119
115
113
116
106
103
101
113
129
127
132
138
144
152
147
146
144
153
162
145
142
136
130
121
103
89
78
77
71
53
44
34
27
18
2
-7
-12
-4
-6
-15
-15
-16
-12
-15
-21
-22
-16
-1
-4
-11
-14
-20
-26
-39
-56
-73
-84
-89
-111
-128
-143
-157
-166
-188
-202
-214
-215
-211
-223
-228
-231
-233
-231
-240
-242
-241
-226
-210
-216
-209
-203
-197
-193
-198
-200
-201
-194
-194
-208
-214
-224
-231
-243
-261
-274
-282
-277
-282
-294
-297
-299
-297
-301
-305
-305
-295
-275
-270
-266
-255
-245
-232
-225
-221
-216
-205
-189
-194
-195
-197
-201
-203
-222
-236
-251
-256
-257
-273
-283
-291
-298
-301
-317
-325
-333
-329
-325
-343
-348
-351
-350
-347
-346
-336
-318
-282
-243
-208
-156
-97
-29
41
109
186
271
371
464
552
655
764
885
1009
1144
1296
1470
1668
1862
2066
2284
2511
2750
2992
3242
3503
3782
4079
4367
4672
4988
5312
5646
5972
6307
6648
6998
7352
7690
8036
8382
8728
9075
9403
9737
10067
10402
10727
11021
11315
11591
11847
12072
12255
12399
12497
12553
12550
12481
12367
12199
11986
11724
11413
11067
10690
10292
9856
9387
8902
8397
7883
7354
6821
6294
5781
5289
4798
4325
3877
3448
3039
2642
2261
1898
1559
1243
918
618
334
66
-180
-421
-641
-844
-1025
-1191
-1363
-1517
-1664
-1800
-1925
-2057
-2173
-2280
-2367
-2449
-2543
-2619
-2690
-2751
-2807
-2860
-2902
-2933
-2946
-2959
-2977
-2980
-2980
-2972
-2965
-2960
-2948
-2928
-2896
-2874
-2856
-2830
-2805
-2776
-2756
-2738
-2718
-2693
-2661
-2645
-2634
-2620
-2611
-2601
-2602
-2605
-2608
-2601
-2588
-2598
-2597
-2595
-2591
-2584
-2587
-2584
-2580
-2565
-2547
-2545
-2532
-2519
-2504
-2485
-2481
-2467
-2450
-2421
-2394
-2383
-2365
-2349
-2331
-2317
-2311
-2302
-2291
-2271
-2260
-2262
-2256
-2251
-2244
-2242
-2245
-2242
-2233
-2213
-2205
-2202
-2190
-2179
-2163
-2156
-2148
-2136
-2116
-2087
-2070
-2056
-2036
-2018
-1996
-1985
-1973
-1962
-1941
-1915
-1914
-1905
-1896
-1889
-1881
-1884
-1885
-1884
-1874
-1860
-1865
-1859
-1852
-1844
-1832
-1835
-1828
-1817
-1795
-1775
-1767
-1750
-1734
-1714
-1697
-1686
-1670
-1651
-1621
-1601
-1593
-1577
-1563
-1549
-1542
-1542
-1539
-1533
-1518
-1519
-1525
-1524
-1524
-1521
-1527
-1533
-1535
-1529
-1516
-1513
-1512
-1506
-1498
-1484
-1481
-1472
-1460
-1435
-1404
-1394
-1376
-1357
-1339
-1320
-1311
-1300
-1290
-1273
-1254
-1259
-1253
-1250
-1247
-1243
-1252
-1255
-1255
-1244
-1236
-1237
-1230
-1223
-1213
-1204
-1201
-1193
-1179
-1153
-1135
-1128
-1110
-1094
-1074
-1061
-1054
-1043
-1027
-1003
-995
-993
-986
-982
-976
-979
-984
-986
-982
-970
-970
-970
-966
-960
-950
-951
-946
-940
-921
-896
-893
-880
-867
-854
-838
-831
-821
-809
-785
-759
-757
-743
-731
-719
-706
-707
-702
-695
-680
-670
-673
-668
-665
-660
-656
-661
-659
-654
-636
-627
-628
-620
-612
-600
-594
-592
-584
-569
-543
-532
-521
-505
-489
-470
-460
-451
-440
-424
-402
-394
-388
-381
-376
-368
-375
-376
-378
-367
-353
-358
-355
-351
-346
-339
-341
-338
-333
-315
-293
-294
-280
-266
-250
-234
-226
-213
-197
-173
-154
-148
-135
-126
-118
-114
-120
-124
-125
-116
-116
-126
-128
-131
-130
-135
-143
-145
-140
-123
-122
-120
-111
-102
-88
-79
-72
-61
-43
-18
-7
5
18
30
44
42
43
43
52
64
55
51
45
39
34
18
8
0
6
15
1
4
5
9
13
11
15
23
41
55
58
70
81
94
103
104
109
117
133
137
130
130
125
121
109
92
78
71
75
62
49
43
38
36
30
22
18
21
33
29
30
35
40
50
47
51
57
73
92
92
98
103
108
113
104
100
95
101
106
88
82
75
70
65
53
46
44
53
57
50
53
56
62
67
66
72
84
107
120
124
137
147
160
164
165
168
178
196
195
192
192
189
187
178
167
158
156
162
151
146
144
143
147
140
139
140
153
172
175
185
196
208
222
222
229
236
256
274
269
276
280
284
285
278
274
271
277
277
265
262
257
256
252
243
240
243
257
261
258
264
269
278
279
280
285
299
322
330
334
342
346
350
346
337
329
326
329
308
292
276
258
243
215
193
172
162
156
134
121
108
98
92
71
59
49
52
54
37
29
20
13
2
-16
-31
-45
-50
-63
-89
-107
-127
-145
-168
-197
-221
-239
-246
-264
-287
-302
-317
-326
-344
-361
-373
-377
-370
-377
-385
-387
-390
-390
-396
-402
-406
-399
-385
-396
-397
-398
-400
-401
-414
-424
-434
-436
-435
-452
-461
-470
-478
-483
-502
-511
-518
-512
-506
-517
-517
-518
-516
-514
-517
-516
-511
-495
-484
-485
-476
-470
-461
-457
-460
-459
-454
-439
-438
-444
-444
-446
-445
-454
-462
-467
-464
-453
-453
-455
-451
-447
-438
-437
-433
-428
-411
-385
-383
-371
-356
-341
-323
-314
-302
-289
-269
-246
-242
-230
-221
-211
-201
-207
-207
-205
-193
-183
-188
-185
-183
-178
-175
-177
-175
-169
-152
-141
-143
-134
-126
-114
-107
-105
-98
-84
-60
-50
-45
-34
-25
-12
-9
-8
-6
0
13
12
7
6
4
4
-6
-14
-21
-15
-2
-13
-13
-12
-10
-5
-8
-7
-4
10
27
25
35
44
55
68
66
70
76
92
103
100
102
101
100
95
81
72
65
70
67
53
50
46
45
39
30
25
28
43
45
44
50
57
69
73
77
85
99
119
127
130
136
140
146
139
135
128
131
139
123
115
109
102
97
84
74
66
69
75
60
59
58
59
63
56
58
64
82
97
101
111
121
131
138
136
138
142
154
156
145
141
133
127
115
100
88
84
89
81
71
68
64
66
60
55
53
60
75
79
84
93
102
116
116
121
126
142
162
160
165
169
170
171
160
150
139
138
138
113
102
89
78
69
50
38
29
31
29
17
15
11
12
11
3
1
3
16
20
13
14
12
12
4
-9
-20
-25
-22
-36
-54
-67
-82
-93
-112
-131
-146
-153
-150
-159
-165
-166
-165
-158
-164
-163
-158
-141
-119
-117
-108
-99
-89
-80
-83
-84
-86
-78
-71
-89
-95
-105
-114
-124
-144
-159
-169
-169
-173
-188
-193
-197
-198
-200
-209
-210
-207
-192
-186
-189
-183
-178
-170
-169
-171
-169
-161
-146
-149
-155
-156
-159
-162
-171
-182
-192
-194
-190
-200
-208
-212
-216
-215
-227
-231
-234
-224
-209
-212
-208
-202
-196
-187
-189
-184
-178
-159
-137
-139
-126
-116
-105
-96
-96
-93
-89
-78
-73
-81
-81
-85
-86
-90
-101
-106
-107
-97
-96
-103
-102
-101
-96
-98
-102
-101
-92
-72
-69
-65
-56
-45
-32
-25
-20
-14
-2
16
15
17
20
21
24
11
2
-6
-5
-1
-14
-21
-28
-32
-33
-46
-51
-53
-41
-28
-35
-27
-20
-10
0
4
13
25
45
60
62
71
76
83
85
77
73
71
78
72
56
48
37
30
16
0
-11
-12
-3
-9
-15
-14
-14
-9
-9
-8
-5
8
30
32
40
50
58
69
66
65
64
70
78
66
59
50
41
33
11
-4
-16
-14
-11
-26
-28
-28
-26
-24
-28
-28
-24
-9
2
0
9
16
26
31
29
31
38
54
57
51
51
49
48
38
25
14
9
14
3
-8
-14
-19
-21
-27
-33
-36
-30
-16
-24
-22
-19
-15
-7
-10
-8
-4
10
27
28
35
42
48
55
48
48
48
60
68
58
56
52
50
45
35
29
27
35
37
28
29
29
32
31
24
23
28
44
48
48
55
60
70
71
70
71
80
96
96
94
95
93
92
81
67
52
47
48
24
8
-6
-21
-32
-51
-66
-79
-82
-81
-97
-105
-114
-123
-130
-151
-164
-174
-170
-166
-176
-174
-170
-159
-145
-131
-105
-68
-14
39
87
149
215
289
363
438
524
623
742
860
984
1130
1289
1467
1649
1846
2058
2291
2541
2789
3048
3324
3612
3917
4226
4548
4882
5236
5605
5956
6322
6696
7077
7464
7845
8232
8623
9023
9426
9807
10195
10579
10958
11331
11677
12016
12337
12646
12924
13154
13351
13500
13599
13636
13605
13518
13374
13186
12939
12631
12286
11897
11474
11012
10515
9995
9458
8916
8352
7781
7217
6659
6116
5580
5060
4563
4090
3644
3204
2778
2373
1986
1621
1262
925
605
315
48
-225
-473
-706
-925
-1130
-1333
-1521
-1699
-1857
-2003
-2161
-2298
-2428
-2547
-2656
-2771
-2869
-2957
-3028
-3093
-3162
-3217
-3265
-3303
-3337
-3371
-3393
-3405
-3400
-3398
-3403
-3393
-3382
-3364
-3350
-3340
-3324
-3301
-3269
-3253
-3241
-3224
-3212
-3198
-3196
-3197
-3196
-3192
-3181
-3185
-3191
-3194
-3197
-3196
-3206
-3211
-3215
-3205
-3188
-3191
-3183
-3172
-3158
-3140
-3127
-3110
-3091
-3060
-3027
-3017
-2993
-2972
-2951
-2930
-2922
-2909
-2895
-2872
-2855
-2851
-2841
-2831
-2819
-2811
-2810
-2802
-2790
-2766
-2750
-2743
-2725
-2707
-2685
-2666
-2651
-2629
-2598
-2556
-2527
-2500
-2467
-2434
-2399
-2372
-2348
-2322
-2292
-2256
-2235
-2216
-2197
-2181
-2162
-2158
-2149
-2139
-2118
-2093
-2087
-2074
-2059
-2043
-2024
-2013
-1997
-1979
-1947
-1911
-1897
-1866
-1836
-1803
-1769
-1745
-1716
-1685
-1646
-1612
-1592
-1566
-1545
-1524
-1509
-1504
-1498
-1489
-1471
-1463
-1466
-1461
-1458
-1451
-1450
-1451
-1447
-1435
-1412
-1404
-1395
-1379
-1362
-1340
-1323
-1306
-1285
-1258
-1224
-1204
-1184
-1162
-1142
-1119
-1112
-1102
-1092
-1072
-1051
-1050
-1044
-1038
-1031
-1024
-1026
-1023
-1018
-999
-976
-977
-961
-947
-929
-911
-899
-881
-860
-828
-801
-786
-761
-739
-716
-696
-686
-672
-656
-630
-617
-614
-605
-600
-593
-596
-603
-606
-602
-588
-589
-590
-585
-580
-572
-569
-567
-563
-552
-532
-529
-522
-513
-504
-490
-490
-484
-476
-459
-439
-438
-432
-427
-423
-418
-425
-429
-432
-424
-415
-428
-427
-425
-422
-418
-422
-420
-414
-399
-387
-386
-376
-367
-355
-346
-344
-336
-323
-299
-285
-279
-266
-255
-241
-237
-236
-232
-222
-204
-203
-205
-204
-206
-205
-211
-218
-224
-222
-211
-218
-218
-216
-213
-205
-210
-208
-204
-188
-167
-162
-150
-137
-123
-107
-104
-94
-85
-64
-44
-48
-41
-38
-36
-37
-45
-52
-56
-52
-53
-67
-71
-76
-76
-78
-86
-88
-82
-65
-58
-58
-49
-40
-28
-23
-20
-13
2
25
32
36
44
49
55
53
48
42
42
49
32
23
14
5
0
-17
-28
-36
-34
-27
-36
-38
-37
-35
-28
-34
-31
-26
-6
14
15
26
37
48
56
56
58
60
71
74
62
58
51
44
32
13
-2
-11
-9
-18
-33
-39
-44
-45
-54
-62
-65
-59
-44
-41
-39
-31
-22
-11
-7
-4
-1
12
32
27
31
35
37
40
30
22
14
14
16
2
-3
-7
-10
-8
-21
-23
-21
-5
10
8
16
25
37
48
53
64
79
105
125
133
150
165
181
193
198
207
220
242
252
255
265
273
284
286
288
293
307
330
340
349
363
378
396
408
421
436
462
496
506
527
549
570
594
608
624
640
663
686
689
700
707
713
719
708
703
698
705
708
696
692
686
682
676
664
656
651
658
658
646
645
641
640
634
622
615
612
620
612
597
586
572
560
536
509
483
462
446
416
383
353
322
295
259
225
192
172
160
124
99
77
55
37
10
-12
-32
-41
-47
-71
-84
-98
-112
-123
-149
-168
-185
-193
-204
-231
-251
-273
-294
-318
-349
-376
-398
-408
-425
-451
-467
-482
-494
-510
-528
-540
-544
-535
-539
-545
-543
-540
-533
-533
-534
-532
-525
-511
-510
-513
-513
-515
-515
-528
-538
-550
-550
-546
-565
-574
-583
-590
-595
-608
-616
-622
-616
-607
-618
-615
-613
-609
-602
-607
-605
-600
-585
-573
-574
-568
-563
-556
-553
-558
-560
-560
-550
-550
-562
-566
-572
-576
-584
-597
-604
-604
-593
-596
-601
-599
-596
-588
-588
-587
-582
-570
-550
-541
-532
-519
-506
-489
-487
-481
-475
-459
-439
-442
-439
-437
-436
-436
-447
-455
-462
-456
-448
-462
-460
-459
-456
-450
-454
-451
-445
-429
-416
-414
-403
-394
-382
-372
-370
-362
-350
-328
-315
-314
-306
-300
-294
-295
-303
-308
-308
-299
-308
-319
-326
-333
-336
-346
-357
-363
-362
-352
-356
-357
-355
-351
-342
-345
-342
-337
-318
-295
-292
-283
-273
-264
-254
-257
-256
-256
-245
-234
-249
-250
-254
-258
-262
-276
-283
-288
-283
-281
-290
-291
-292
-291
-291
-298
-298
-292
-274
-265
-266
-256
-247
-235
-231
-230
-227
-217
-199
-199
-202
-200
-201
-201
-209
-220
-230
-235
-233
-247
-257
-265
-271
-272
-286
-293
-299
-291
-279
-284
-281
-278
-273
-266
-268
-265
-260
-242
-222
-227
-219
-213
-208
-203
-208
-210
-211
-205
-204
-216
-221
-227
-231
-238
-252
-261
-264
-255
-254
-261
-257
-255
-248
-247
-248
-243
-230
-205
-196
-188
-173
-160
-144
-135
-129
-122
-111
-93
-95
-93
-92
-92
-89
-102
-109
-116
-113
-105
-113
-114
-114
-111
-105
-110
-108
-104
-86
-65
-67
-54
-42
-28
-14
-8
2
14
35
49
48
54
57
59
56
44
34
28
32
24
9
2
-6
-9
-18
-28
-34
-29
-15
-16
-17
-12
-6
4
8
10
15
28
48
49
56
63
69
78
72
70
68
74
82
72
66
58
50
43
23
11
0
3
7
-9
-11
-14
-14
-14
-20
-21
-18
-3
6
3
11
18
28
33
32
36
44
61
66
61
63
62
64
57
47
41
43
54
50
45
45
44
47
44
40
39
46
61
55
57
62
66
74
70
72
75
88
103
101
104
106
108
110
97
90
84
90
93
77
70
62
55
47
34
27
24
32
36
28
32
36
44
48
47
52
64
88
100
107
123
137
155
162
168
175
189
209
213
213
215
216
217
209
200
192
193
201
186
181
177
174
175
165
160
158
165
177
172
177
182
190
201
198
205
212
232
248
247
253
256
259
258
248
239
231
231
222
201
190
177
167
152
133
119
113
118
112
101
100
98
103
99
96
97
106
123
128
130
135
138
142
136
130
123
126
134
117
109
100
89
81
63
49
36
34
36
20
17
14
14
17
8
8
13
30
45
46
56
65
76
84
85
89
95
110
116
108
108
104
101
91
75
61
53
56
46
32
25
19
18
9
1
-3
1
15
17
18
24
31
40
40
44
48
64
86
83
88
93
97
101
95
90
85
89
94
77
71
64
57
53
34
24
17
22
25
15
15
15
17
18
13
13
18
36
47
46
56
63
72
75
71
70
75
88
85
77
73
67
62
47
31
19
14
16
7
-3
-8
-11
-11
-21
-26
-29
-18
-1
-6
-1
5
12
21
22
26
31
46
63
55
60
62
64
65
52
44
37
38
36
21
14
6
0
-7
-20
-28
-30
-20
-19
-28
-27
-26
-21
-21
-24
-22
-12
8
14
17
26
33
42
41
37
33
33
39
30
18
8
-3
-11
-33
-49
-63
-65
-61
-76
-81
-84
-85
-82
-87
-86
-83
-68
-49
-54
-43
-33
-22
-11
-11
-6
1
15
24
20
23
22
22
17
4
-5
-9
-2
-4
-16
-19
-23
-22
-26
-33
-35
-29
-12
-10
-10
-5
0
9
11
12
16
26
43
44
45
47
46
47
32
21
8
6
6
-13
-26
-37
-46
-52
-67
-75
-81
-73
-61
-72
-68
-65
-60
-54
-56
-53
-45
-28
-14
-12
-1
8
18
25
23
26
32
48
53
47
48
47
47
39
27
18
17
26
19
11
10
9
11
9
5
6
14
32
36
44
56
68
85
87
96
105
125
147
150
157
163
169
174
166
162
158
165
174
159
159
158
161
164
161
163
169
184
195
194
203
210
220
227
227
233
243
264
273
272
277
279
282
275
265
256
253
257
243
225
212
196
184
165
145
128
119
118
100
90
83
77
77
63
57
55
64
77
74
78
82
88
96
89
89
87
99
110
97
95
91
86
79
64
51
40
39
33
16
8
0
-4
-11
-25
-31
-31
-19
-16
-20
-15
-12
-4
-5
-7
-6
2
18
17
12
11
8
6
-5
-19
-34
-44
-50
-80
-105
-131
-158
-182
-219
-247
-271
-281
-283
-295
-295
-285
-265
-230
-200
-152
-95
-17
67
137
225
317
415
518
622
739
869
1020
1177
1334
1513
1703
1905
2113
2324
2550
2791
3056
3320
3589
3878
4181
4503
4831
5171
5525
5898
6288
6671
7058
7452
7849
8251
8650
9048
9447
9854
10267
10652
11037
11414
11777
12129
12448
12747
13017
13256
13452
13578
13657
13676
13637
13540
13370
13155
12889
12588
12240
11833
11401
10938
10449
9932
9390
8835
8273
7715
7149
6571
6011
5462
4932
4415
3910
3427
2965
2527
2090
1662
1256
865
496
135
-206
-524
-812
-1070
-1323
-1558
-1773
-1972
-2154
-2329
-2490
-2636
-2760
-2865
-2984
-3082
-3170
-3250
-3318
-3389
-3452
-3507
-3548
-3581
-3627
-3659
-3688
-3710
-3725
-3751
-3765
-3772
-3762
-3749
-3748
-3735
-3720
-3699
-3677
-3659
-3635
-3608
-3568
-3535
-3513
-3482
-3452
-3419
-3392
-3370
-3345
-3315
-3276
-3252
-3234
-3211
-3191
-3168
-3156
-3146
-3134
-3116
-3091
-3079
-3070
-3057
-3044
-3029
-3022
-3012
-3000
-2975
-2943
-2934
-2914
-2892
-2871
-2848
-2834
-2817
-2798
-2769
-2737
-2724
-2700
-2677
-2654
-2630
-2621
-2605
-2588
-2561
-2539
-2532
-2519
-2507
-2495
-2485
-2482
-2474
-2463
-2441
-2426
-2423
-2408
-2394
-2377
-2364
-2355
-2341
-2319
-2287
-2267
-2251
-2227
-2204
-2176
-2157
-2138
-2115
-2086
-2050
-2028
-2009
-1988
-1969
-1948
-1939
-1928
-1919
-1898
-1871
-1869
-1858
-1845
-1832
-1817
-1810
-1800
-1789
-1767
-1743
-1738
-1720
-1701
-1680
-1657
-1647
-1629
-1607
-1574
-1544
-1527
-1503
-1481
-1456
-1435
-1422
-1405
-1387
-1359
-1340
-1336
-1324
-1315
-1303
-1297
-1296
-1291
-1279
-1257
-1249
-1244
-1233
-1222
-1206
-1199
-1191
-1178
-1159
-1132
-1116
-1100
-1079
-1058
-1033
-1021
-1005
-990
-963
-932
-926
-913
-901
-891
-881
-882
-881
-880
-868
-853
-862
-856
-850
-842
-833
-835
-830
-821
-801
-784
-778
-762
-747
-729
-712
-702
-685
-666
-637
-617
-608
-592
-578
-564
-557
-557
-554
-547
-531
-533
-538
-538
-539
-537
-542
-548
-549
-544
-531
-530
-529
-525
-518
-507
-509
-505
-498
-479
-455
-452
-440
-428
-417
-406
-405
-402
-401
-390
-379
-394
-396
-400
-405
-410
-426
-436
-443
-440
-440
-451
-453
-455
-454
-455
-463
-463
-458
-440
-430
-430
-419
-408
-394
-387
-385
-380
-369
-350
-350
-353
-353
-357
-359
-370
-385
-398
-406
-406
-421
-433
-443
-451
-454
-470
-478
-484
-476
-462
-466
-462
-456
-449
-439
-439
-433
-426
-406
-385
-389
-380
-374
-369
-367
-375
-380
-384
-381
-384
-400
-409
-419
-428
-440
-459
-471
-478
-472
-474
-484
-482
-481
-475
-475
-477
-475
-464
-442
-437
-433
-423
-415
-404
-401
-401
-400
-394
-382
-389
-393
-397
-401
-402
-419
-430
-440
-438
-432
-442
-446
-447
-445
-441
-447
-444
-440
-420
-397
-397
-382
-367
-349
-332
-321
-308
-291
-266
-248
-243
-230
-221
-212
-209
-214
-215
-213
-200
-199
-205
-203
-201
-196
-196
-197
-192
-179
-155
-146
-137
-120
-104
-85
-71
-57
-40
-16
16
28
45
63
80
99
103
110
118
134
152
150
153
154
155
158
147
144
142
155
169
163
169
175
184
192
194
201
212
233
249
252
266
278
293
304
308
317
331
354
366
369
379
387
398
399
397
398
407
426
429
432
440
449
460
467
473
482
500
525
530
544
559
574
594
600
611
624
645
670
677
690
701
712
723
717
719
719
731
739
725
722
715
710
701
686
675
667
669
665
647
640
630
623
612
595
584
579
585
580
568
564
559
556
544
530
518
513
515
501
483
467
449
431
405
379
354
338
330
299
277
257
238
224
199
180
164
157
154
135
124
114
107
102
84
74
66
70
71
55
47
37
30
18
-2
-19
-35
-42
-57
-84
-101
-120
-135
-154
-178
-196
-208
-208
-220
-236
-244
-252
-255
-265
-274
-279
-275
-262
-263
-266
-264
-264
-262
-269
-276
-283
-280
-273
-291
-301
-311
-322
-330
-349
-365
-378
-381
-381
-398
-404
-409
-412
-411
-423
-425
-423
-407
-393
-393
-384
-375
-364
-355
-354
-350
-343
-327
-320
-328
-328
-331
-334
-343
-360
-373
-380
-378
-388
-402
-409
-416
-418
-428
-438
-444
-442
-431
-431
-432
-427
-421
-411
-410
-405
-399
-382
-360
-363
-359
-355
-354
-352
-361
-369
-377
-377
-376
-396
-404
-413
-419
-423
-440
-447
-450
-442
-434
-439
-434
-430
-422
-416
-416
-409
-398
-375
-359
-354
-339
-326
-311
-303
-301
-295
-285
-266
-263
-266
-264
-264
-263
-271
-279
-284
-283
-273
-275
-279
-278
-276
-270
-274
-275
-274
-261
-242
-245
-239
-232
-225
-214
-213
-208
-202
-188
-173
-180
-175
-174
-172
-171
-182
-188
-192
-186
-184
-194
-196
-199
-200
-202
-211
-213
-211
-197
-191
-195
-189
-184
-175
-170
-169
-163
-150
-125
-116
-111
-99
-91
-80
-78
-79
-79
-73
-62
-64
-69
-70
-71
-69
-79
-84
-88
-79
-64
-69
-65
-60
-52
-42
-39
-31
-20
3
31
36
56
75
95
116
125
138
153
176
194
197
206
211
215
215
204
198
194
200
196
180
175
167
162
151
136
126
124
133
127
118
116
114
114
107
100
95
96
105
98
91
86
80
76
57
42
26
20
16
-8
-25
-41
-56
-68
-89
-104
-117
-117
-113
-132
-134
-136
-136
-135
-141
-140
-136
-121
-110
-110
-103
-98
-91
-89
-96
-98
-98
-89
-93
-107
-115
-126
-134
-150
-169
-184
-192
-188
-199
-211
-215
-219
-218
-223
-229
-230
-224
-209
-208
-204
-197
-189
-177
-181
-179
-177
-166
-152
-159
-161
-165
-169
-174
-191
-204
-217
-218
-217
-238
-244
-249
-251
-251
-257
-258
-254
-240
-229
-230
-220
-211
-200
-192
-191
-185
-175
-154
-145
-145
-139
-136
-130
-134
-142
-148
-148
-139
-148
-160
-168
-177
-183
-194
-206
-216
-218
-212
-222
-228
-231
-232
-228
-237
-239
-238
-226
-210
-210
-204
-197
-190
-181
-186
-186
-186
-174
-162
-174
-174
-177
-180
-186
-200
-210
-218
-215
-218
-233
-238
-244
-247
-252
-262
-265
-262
-247
-241
-242
-233
-224
-210
-203
-197
-187
-169
-142
-133
-127
-117
-109
-102
-103
-108
-113
-111
-104
-117
-124
-129
-135
-137
-151
-159
-165
-159
-149
-154
-152
-149
-144
-136
-140
-135
-129
-107
-86
-86
-74
-65
-55
-49
-51
-51
-50
-41
-40
-52
-57
-65
-72
-82
-98
-110
-116
-109
-114
-124
-125
-126
-121
-124
-126
-124
-113
-93
-87
-82
-72
-63
-52
-47
-44
-41
-31
-14
-21
-21
-21
-22
-22
-35
-46
-55
-54
-51
-64
-69
-73
-74
-71
-83
-85
-84
-70
-56
-59
-52
-45
-35
-27
-23
-16
-4
17
31
32
41
47
54
55
49
46
46
56
53
43
40
36
37
29
20
16
21
36
38
38
44
49
56
58
61
66
82
106
107
118
130
142
157
159
164
170
184
200
196
201
204
207
211
200
199
199
212
223
218
222
226
233
237
234
236
240
255
264
261
268
274
283
288
288
293
302
321
324
320
322
321
322
310
296
285
279
280
267
253
243
232
225
210
196
186
187
197
182
179
177
176
179
174
173
174
186
200
196
201
204
208
212
201
196
193
199
200
184
175
162
151
137
116
100
87
86
79
61
55
47
43
34
21
14
14
25
23
18
20
21
26
20
12
7
8
17
12
2
-6
-15
-24
-45
-64
-82
-88
-88
-111
-124
-135
-145
-151
-165
-175
-183
-179
-172
-183
-181
-178
-173
-165
-170
-167
-161
-144
-131
-132
-127
-125
-123
-125
-137
-146
-153
-150
-157
-175
-184
-195
-201
-213
-228
-237
-238
-228
-230
-235
-233
-231
-225
-228
-232
-232
-226
-211
-209
-209
-206
-203
-199
-207
-212
-217
-212
-202
-217
-223
-231
-239
-246
-262
-273
-282
-279
-273
-290
-293
-300
-307
-314
-336
-352
-367
-371
-377
-393
-398
-402
-400
-395
-391
-374
-346
-299
-253
-212
-157
-98
-32
33
99
174
262
366
464
570
695
832
987
1149
1327
1522
1735
1968
2199
2440
2697
2966
3252
3539
3846
4168
4517
4883
5238
5610
5990
6378
6774
7167
7567
7971
8389
8812
9212
9627
10039
10450
10858
11248
11633
12006
12373
12713
13015
13291
13525
13714
13848
13916
13926
13876
13774
13604
13369
13093
12766
12398
11982
11528
11047
10543
10023
9467
8895
8319
7739
7163
6585
6016
5467
4940
4439
3942
3462
3003
2560
2138
1720
1326
952
608
288
-33
-327
-600
-854
-1089
-1318
-1527
-1720
-1887
-2040
-2206
-2345
-2476
-2597
-2709
-2821
-2921
-3011
-3084
-3157
-3234
-3295
-3351
-3398
-3440
-3483
-3514
-3535
-3539
-3547
-3560
-3559
-3555
-3544
-3536
-3528
-3515
-3492
-3457
-3437
-3418
-3393
-3370
-3346
-3329
-3316
-3303
-3286
-3263
-3259
-3256
-3252
-3250
-3245
-3255
-3260
-3264
-3256
-3245
-3250
-3247
-3243
-3238
-3229
-3230
-3223
-3213
-3188
-3160
-3153
-3131
-3109
-3084
-3059
-3041
-3019
-2994
-2960
-2932
-2917
-2894
-2874
-2854
-2839
-2833
-2823
-2810
-2787
-2775
-2771
-2759
-2747
-2731
-2721
-2713
-2700
-2677
-2644
-2627
-2609
-2584
-2559
-2529
-2504
-2480
-2452
-2416
-2372
-2347
-2318
-2288
-2260
-2230
-2216
-2200
-2183
-2159
-2134
-2128
-2117
-2109
-2099
-2088
-2090
-2084
-2075
-2052
-2027
-2023
-2005
-1987
-1965
-1944
-1929
-1908
-1883
-1848
-1818
-1800
-1771
-1744
-1715
-1691
-1676
-1658
-1636
-1605
-1587
-1578
-1564
-1552
-1538
-1533
-1531
-1525
-1510
-1485
-1474
-1462
-1444
-1424
-1401
-1383
-1365
-1345
-1315
-1277
-1260
-1234
-1207
-1179
-1148
-1130
-1108
-1085
-1054
-1022
-1008
-989
-972
-956
-941
-942
-937
-933
-918
-904
-912
-908
-904
-899
-894
-896
-893
-885
-867
-854
-853
-842
-833
-819
-809
-804
-794
-776
-747
-729
-717
-696
-678
-657
-646
-637
-625
-607
-581
-572
-566
-557
-551
-543
-543
-544
-545
-537
-522
-528
-526
-522
-518
-511
-515
-514
-511
-499
-482
-482
-472
-462
-450
-434
-432
-421
-410
-386
-364
-361
-349
-338
-328
-322
-325
-326
-325
-314
-310
-320
-320
-323
-323
-327
-336
-339
-338
-325
-324
-329
-325
-322
-315
-316
-316
-313
-301
-281
-275
-271
-265
-260
-254
-256
-259
-263
-258
-247
-262
-268
-275
-282
-287
-303
-315
-326
-326
-322
-334
-336
-336
-334
-328
-336
-333
-328
-309
-291
-289
-277
-266
-253
-244
-243
-238
-232
-216
-208
-216
-216
-219
-221
-230
-245
-256
-262
-257
-265
-278
-282
-286
-286
-293
-300
-303
-297
-283
-279
-277
-270
-261
-249
-245
-240
-233
-215
-191
-193
-186
-178
-173
-166
-171
-174
-177
-172
-166
-180
-183
-186
-188
-186
-198
-201
-200
-188
-177
-180
-175
-169
-161
-154
-154
-149
-139
-119
-106
-106
-97
-91
-83
-83
-90
-95
-96
-88
-97
-112
-120
-132
-140
-156
-172
-183
-187
-183
-189
-197
-199
-201
-198
-204
-205
-204
-189
-168
-170
-161
-151
-140
-127
-124
-119
-114
-101
-85
-92
-88
-87
-87
-87
-102
-110
-116
-111
-109
-119
-121
-123
-121
-120
-124
-120
-112
-91
-77
-73
-58
-44
-27
-15
-6
8
28
59
74
86
104
118
136
144
150
157
169
188
193
195
200
206
215
213
216
221
241
267
271
284
298
313
331
341
356
372
401
433
443
468
490
514
538
548
563
579
603
621
624
632
636
639
637
625
618
613
620
618
605
600
594
592
583
570
562
562
572
567
560
559
557
557
548
538
530
526
527
514
498
483
466
450
419
391
362
343
327
290
262
234
208
184
152
124
98
86
77
46
31
17
6
-3
-21
-31
-38
-35
-34
-45
-48
-54
-58
-66
-82
-95
-105
-105
-117
-140
-155
-173
-186
-206
-229
-248
-258
-255
-267
-278
-282
-285
-284
-288
-293
-295
-288
-273
-271
-266
-259
-251
-239
-242
-240
-238
-227
-213
-221
-223
-227
-233
-238
-255
-269
-283
-283
-282
-303
-309
-316
-319
-321
-328
-330
-327
-313
-303
-304
-294
-286
-274
-266
-265
-258
-246
-225
-215
-217
-212
-211
-208
-214
-225
-234
-237
-231
-244
-258
-266
-274
-280
-291
-304
-313
-315
-308
-317
-321
-323
-323
-318
-326
-327
-326
-314
-297
-297
-291
-284
-278
-270
-274
-274
-273
-261
-249
-261
-261
-264
-267
-272
-285
-294
-300
-296
-297
-309
-312
-315
-315
-317
-325
-326
-322
-306
-299
-300
-290
-281
-268
-261
-256
-248
-232
-209
-202
-198
-190
-185
-179
-181
-187
-193
-192
-185
-197
-204
-209
-213
-213
-227
-233
-236
-228
-215
-217
-211
-203
-193
-179
-177
-168
-157
-132
-107
-104
-88
-76
-64
-55
-55
-54
-53
-46
-47
-65
-75
-89
-102
-120
-144
-164
-179
-182
-195
-215
-226
-237
-244
-258
-272
-281
-281
-272
-277
-282
-281
-280
-276
-278
-282
-285
-281
-270
-282
-287
-292
-299
-303
-322
-338
-352
-358
-359
-377
-386
-395
-401
-403
-419
-425
-429
-418
-407
-414
-408
-403
-395
-388
-386
-380
-372
-354
-343
-346
-342
-341
-338
-342
-353
-362
-367
-362
-370
-386
-394
-402
-406
-419
-432
-439
-436
-423
-424
-425
-421
-416
-409
-407
-405
-400
-385
-362
-362
-353
-343
-334
-322
-323
-321
-319
-309
-299
-309
-311
-316
-321
-325
-343
-352
-359
-353
-347
-357
-357
-355
-352
-349
-353
-352
-347
-331
-321
-322
-312
-305
-293
-287
-287
-283
-275
-257
-252
-254
-250
-249
-245
-252
-261
-267
-266
-256
-260
-265
-265
-266
-264
-270
-273
-275
-267
-251
-258
-255
-251
-246
-237
-238
-233
-227
-211
-192
-192
-182
-173
-163
-150
-152
-147
-139
-121
-105
-105
-98
-93
-86
-81
-83
-80
-73
-55
-44
-45
-35
-28
-17
-10
-9
-3
10
33
43
49
62
74
90
96
101
109
123
144
151
154
159
164
169
164
159
155
161
174
162
161
160
160
162
155
152
150
158
169
160
163
164
168
173
165
165
168
182
193
190
194
197
201
201
193
188
186
192
190
175
170
162
158
147
131
120
117
124
118
109
108
106
108
103
97
96
103
119
124
126
133
139
148
145
145
145
156
172
163
162
159
155
151
137
125
115
114
116
97
91
85
80
77
62
56
53
62
68
63
67
70
78
84
83
89
98
116
126
122
128
130
133
128
118
109
106
111
101
88
81
72
68
55
42
32
29
35
29
23
22
23
28
22
22
25
41
62
61
67
74
81
88
84
81
78
83
89
68
60
49
37
25
1
-18
-34
-40
-49
-69
-80
-92
-101
-111
-129
-140
-147
-142
-144
-156
-156
-157
-154
-157
-164
-168
-166
-154
-160
-169
-174
-182
-189
-205
-223
-238
-248
-252
-269
-286
-299
-312
-319
-340
-354
-366
-365
-358
-370
-373
-375
-373
-369
-373
-371
-367
-351
-334
-341
-334
-331
-327
-325
-333
-337
-340
-335
-336
-349
-355
-363
-368
-377
-393
-404
-411
-406
-410
-424
-427
-429
-427
-430
-435
-433
-423
-401
-393
-387
-374
-362
-347
-340
-335
-329
-319
-302
-303
-303
-304
-306
-305
-320
-329
-337
-334
-327
-339
-344
-348
-351
-351
-361
-363
-364
-349
-331
-336
-325
-314
-301
-289
-283
-273
-261
-239
-223
-222
-212
-207
-200
-199
-208
-212
-214
-205
-207
-219
-222
-227
-228
-234
-243
-246
-241
-225
-225
-224
-217
-208
-195
-186
-178
-166
-147
-120
-111
-98
-83
-70
-54
-54
-49
-45
-32
-18
-23
-23
-23
-23
-20
-31
-33
-33
-18
-1
-5
7
20
35
51
62
78
99
131
159
175
201
224
250
271
284
300
318
345
358
360
368
372
378
372
363
357
358
368
362
357
357
358
362
362
361
365
377
398
399
408
418
429
443
444
451
459
474
491
490
493
494
494
494
478
468
457
460
461
441
433
424
417
409
397
390
388
397
401
394
397
400
406
409
406
408
415
433
440
439
444
447
451
445
437
432
432
439
429
416
405
394
384
369
353
338
334
338
321
314
310
306
306
295
290
288
296
308
305
310
315
321
331
326
329
332
347
358
348
347
343
339
331
315
301
290
288
280
260
250
240
234
225
210
202
200
211
211
206
209
212
219
218
216
218
228
246
249
249
252
253
254
247
239
229
229
233
212
200
189
179
171
152
137
124
121
122
106
99
93
89
89
74
69
66
76
84
75
75
72
69
63
48
36
25
23
13
-11
-25
-43
-57
-77
-101
-120
-132
-133
-146
-163
-171
-178
-180
-190
-200
-205
-201
-189
-190
-193
-190
-187
-180
-181
-181
-181
-170
-154
-164
-164
-165
-168
-170
-182
-192
-201
-203
-201
-218
-225
-232
-238
-240
-257
-264
-269
-261
-255
-263
-262
-262
-259
-258
-262
-261
-256
-240
-230
-233
-225
-220
-212
-211
-217
-219
-217
-207
-212
-224
-230
-239
-244
-258
-272
-283
-285
-278
-282
-289
-290
-290
-286
-293
-296
-297
-287
-269
-274
-268
-260
-250
-238
-235
-231
-227
-216
-204
-218
-222
-232
-244
-256
-284
-304
-319
-322
-324
-334
-330
-319
-294
-262
-226
-177
-117
-38
40
114
203
297
400
505
613
734
873
1034
1192
1358
1543
1736
1943
2148
2359
2582
2819
3071
3319
3576
3847
4130
4429
4728
5043
5368
5714
6073
6415
6771
7131
7494
7863
8225
8592
8962
9342
9723
10077
10438
10788
11128
11457
11755
12036
12291
12520
12702
12822
12894
12909
12866
12762
12592
12374
12112
11813
11461
11060
10636
10183
9706
9199
8670
8134
7599
7075
6539
6009
5498
5002
4527
4064
3619
3197
2797
2420
2044
1680
1334
1000
683
366
70
-209
-460
-689
-924
-1137
-1335
-1521
-1693
-1863
-2016
-2156
-2274
-2378
-2496
-2588
-2671
-2743
-2805
-2869
-2919
-2959
-2982
-3002
-3029
-3043
-3054
-3060
-3066
-3076
-3080
-3078
-3065
-3060
-3064
-3059
-3054
-3045
-3042
-3040
-3034
-3020
-2995
-2984
-2974
-2959
-2943
-2925
-2912
-2901
-2886
-2865
-2837
-2822
-2807
-2788
-2771
-2750
-2745
-2736
-2728
-2710
-2689
-2689
-2685
-2682
-2679
-2677
-2685
-2688
-2689
-2677
-2661
-2669
-2660
-2651
-2639
-2625
-2618
-2605
-2589
-2563
-2540
-2528
-2508
-2489
-2466
-2447
-2434
-2417
-2396
-2364
-2343
-2333
-2314
-2298
-2281
-2271
-2266
-2259
-2245
-2222
-2217
-2213
-2205
-2198
-2188
-2184
-2181
-2175
-2162
-2140
-2132
-2120
-2104
-2086
-2063
-2053
-2036
-2017
-1988
-1954
-1938
-1916
-1894
-1872
-1850
-1841
-1827
-1814
-1790
-1766
-1766
-1753
-1745
-1737
-1732
-1734
-1733
-1728
-1715
-1705
-1705
-1696
-1688
-1677
-1668
-1666
-1659
-1646
-1621
-1606
-1600
-1584
-1568
-1549
-1537
-1528
-1515
-1495
-1467
-1456
-1446
-1433
-1421
-1408
-1402
-1399
-1396
-1386
-1369
-1370
-1366
-1360
-1354
-1342
-1345
-1341
-1335
-1317
-1295
-1289
-1277
-1263
-1247
-1228
-1221
-1205
-1189
-1158
-1128
-1120
-1101
-1085
-1067
-1053
-1047
-1039
-1031
-1016
-1008
-1014
-1012
-1012
-1010
-1011
-1019
-1022
-1019
-1004
-998
-999
-991
-984
-971
-965
-960
-950
-932
-903
-890
-877
-858
-841
-821
-807
-796
-784
-765
-740
-737
-728
-721
-716
-709
-718
-722
-724
-718
-708
-714
-713
-711
-707
-698
-703
-699
-692
-671
-648
-644
-629
-613
-595
-577
-565
-549
-530
-504
-485
-481
-468
-460
-451
-449
-456
-459
-459
-450
-454
-464
-466
-469
-468
-476
-484
-487
-479
-460
-455
-451
-440
-428
-413
-404
-396
-384
-363
-334
-328
-314
-300
-288
-275
-276
-274
-272
-263
-254
-263
-266
-271
-276
-278
-294
-300
-304
-293
-282
-286
-279
-272
-263
-254
-251
-243
-231
-209
-192
-188
-173
-161
-146
-136
-133
-126
-116
-97
-92
-94
-90
-88
-84
-90
-98
-103
-101
-90
-92
-97
-96
-96
-93
-95
-98
-98
-88
-69
-73
-68
-61
-53
-42
-41
-36
-30
-13
6
7
18
26
35
46
40
41
43
57
67
61
62
62
64
62
55
53
54
67
74
68
73
76
83
85
81
83
91
110
117
119
128
136
147
149
149
152
162
177
179
177
178
177
177
167
159
152
156
165
150
145
141
138
137
128
122
119
126
137
128
131
134
139
148
143
146
152
169
182
181
187
192
198
200
194
191
190
199
200
189
187
183
182
176
165
158
159
171
169
165
168
171
180
180
182
188
202
225
237
248
262
277
294
301
312
322
344
370
371
381
390
400
410
412
417
423
439
459
458
471
482
495
510
513
523
536
560
580
588
604
618
634
647
652
662
673
694
705
702
707
707
709
702
688
676
669
671
657
638
626
611
599
577
555
535
522
515
497
478
462
446
433
409
389
370
363
362
337
320
303
285
268
240
215
189
172
156
114
85
54
23
-7
-49
-83
-115
-135
-158
-191
-215
-240
-260
-282
-308
-325
-337
-336
-342
-357
-361
-364
-365
-373
-384
-392
-392
-384
-393
-406
-414
-425
-434
-452
-472
-488
-499
-502
-518
-534
-545
-556
-562
-580
-593
-602
-599
-588
-597
-596
-593
-588
-580
-581
-576
-571
-554
-536
-543
-537
-534
-531
-529
-539
-545
-549
-546
-547
-560
-566
-573
-577
-583
-596
-602
-602
-590
-587
-593
-588
-584
-576
-574
-574
-568
-554
-529
-520
-513
-500
-489
-477
-473
-473
-472
-467
-457
-462
-468
-473
-479
-480
-497
-507
-515
-511
-501
-508
-508
-505
-501
-493
-495
-490
-482
-461
-437
-436
-419
-404
-386
